106
108
109
111
112
113
114
114
115
115
115
115
115
114
114
113
113
113
112
112
111
111
111
111
111
111
111
111
110
110
110
110
110
110
110
109
109
109
109
108
108
108
108
108
107
106
106
106
105
105
105
105
104
104
104
104
104
104
104
104
104
103
103
103
103
103
103
103
103
102
102
102
102
102
102
102
102
102
102
102
102
102
102
102
102
102
102
102
102
102
102
102
101
101
100
100
100
100
100
100
101
101
101
101
101
101
101
101
101
101
101
101
101
101
101
101
101
101
101
101
100
100
101
101
102
102
103
103
104
105
105
106
107
108
108
108
108
107
107
106
105
103
102
101
100
99
98
98
98
98
98
99
99
99
99
100
100
101
101
102
102
103
106
111
118
130
145
163
183
202
218
228
229
222
206
186
163
142
124
110
102
98
96
96
95
95
95
94
93
92
92
91
91
91
91
91
91
91
91
91
91
91
92
92
92
92
92
93
93
93
93
93
93
93
94
94
95
95
95
95
95
95
96
96
96
97
97
97
97
98
98
98
98
98
98
98
97
97
97
96
96
96
96
96
96
96
96
97
97
98
99
99
100
101
102
104
106
107
109
111
112
113
114
114
115
115
115
115
115
115
114
114
113
113
113
112
112
111
111
111
111
111
111
111
111
111
111
111
110
110
110
110
110
110
110
109
109
109
109
108
108
107
107
106
106
105
105
105
105
105
105
105
105
105
105
105
105
105
105
105
105
105
104
104
104
104
103
103
102
102
102
102
102
103
103
103
102
102
102
102
102
102
102
102
101
101
101
101
100
101
101
101
101
101
100
100
100
100
100
100
100
100
100
99
99
99
100
100
100
100
100
100
100
100
100
100
100
100
101
101
102
103
104
105
106
107
108
108
109
109
109
108
107
106
105
103
102
100
99
99
98
98
98
98
98
98
98
98
99
99
99
99
99
100
100
102
104
109
116
126
140
157
176
195
212
225
229
225
213
195
173
151
131
116
105
99
95
94
94
94
94
94
93
93
92
92
91
92
92
92
92
92
91
91
91
91
91
92
92
93
93
93
93
93
93
94
94
94
94
94
95
95
95
95
96
96
96
96
96
96
96
97
97
97
97
97
97
97
97
97
97
97
97
97
97
96
96
97
97
97
97
97
98
98
98
99
100
101
103
104
106
107
109
110
111
112
113
114
114
115
115
115
115
115
115
115
114
114
113
113
112
112
112
111
111
111
111
111
111
111
110
110
110
110
109
109
109
108
108
108
108
108
108
107
107
107
107
106
106
106
105
105
105
105
105
105
105
105
105
104
104
104
104
104
104
104
104
104
104
104
104
104
104
104
103
103
103
102
102
102
102
102
102
102
102
102
102
102
102
102
102
102
102
101
101
101
101
101
101
100
100
100
100
100
100
100
100
101
100
100
100
100
100
100
100
100
100
100
100
100
100
100
100
100
100
100
100
100
100
101
101
102
103
104
105
106
106
107
108
109
109
109
108
107
106
105
104
103
102
102
101
100
100
99
99
99
99
99
99
99
100
100
100
101
102
103
104
107
112
121
133
150
169
190
209
222
228
224
212
193
170
148
128
113
103
98
95
95
95
95
94
94
93
92
91
91
91
91
91
91
91
91
91
91
91
92
92
93
93
93
93
93
93
93
93
93
93
93
94
94
94
95
95
96
96
96
96
96
96
96
96
97
97
97
97
97
96
96
96
96
96
96
96
96
96
96
96
96
96
96
96
96
96
96
97
98
99
100
101
103
104
105
107
109
110
111
112
113
114
114
115
115
115
115
115
114
114
114
113
113
112
112
112
112
111
111
111
111
111
111
111
111
111
110
110
110
110
110
109
109
109
108
108
108
108
108
108
108
107
107
106
106
105
105
105
105
105
105
105
105
104
104
104
104
104
104
104
103
103
103
103
103
103
103
103
102
102
102
102
102
102
102
102
102
101
101
101
101
100
100
100
100
100
100
100
100
100
101
101
100
100
100
100
100
100
100
100
100
99
99
100
100
100
100
100
100
100
99
99
99
99
100
100
100
101
101
102
103
104
105
106
107
108
108
108
108
108
107
106
105
104
103
102
101
100
99
99
98
98
98
98
98
99
99
100
100
100
100
100
101
102
105
111
119
132
148
169
191
212
229
239
239
230
212
189
164
141
122
108
100
96
94
94
94
94
94
94
93
93
93
92
92
91
91
91
91
91
91
91
91
91
91
92
92
92
92
92
92
92
92
92
92
92
92
93
93
93
93
94
94
94
94
95
95
95
96
96
97
97
98
98
98
98
97
97
97
97
97
97
98
98
97
97
97
97
97
97
97
97
97
97
98
99
100
101
102
104
105
107
108
110
111
113
114
114
115
115
115
115
115
115
115
114
114
113
113
113
113
112
112
112
112
111
111
110
110
110
110
111
111
110
110
110
110
110
110
110
110
110
109
109
108
108
108
108
107
107
107
106
106
106
106
106
106
106
105
105
105
104
104
104
104
104
104
104
103
103
102
102
102
101
101
101
101
101
101
102
102
102
102
102
102
101
101
101
101
101
101
101
101
101
100
101
101
101
101
101
101
101
100
100
100
100
100
100
100
99
99
99
99
99
100
100
100
100
100
100
101
101
102
102
103
103
104
104
105
106
107
108
108
109
108
108
107
106
106
104
103
102
101
100
100
99
99
99
99
99
99
99
100
100
100
100
101
101
101
101
103
107
113
123
137
155
174
193
210
220
222
215
200
179
156
135
118
106
99
96
95
96
96
96
96
95
94
93
93
92
92
92
92
92
93
93
93
93
93
93
93
94
94
94
94
94
94
94
94
94
94
94
94
95
95
96
96
96
97
97
97
97
97
97
97
97
97
97
97
97
98
98
98
98
98
97
97
97
97
97
97
97
97
97
97
98
98
99
99
100
101
102
104
105
107
109
111
112
113
114
115
116
116
116
116
116
116
115
114
114
114
114
113
113
113
112
112
111
111
111
111
111
111
111
111
111
110
110
110
110
109
109
109
108
108
108
108
108
108
108
108
107
107
107
107
107
107
107
107
107
106
106
106
105
105
104
104
103
103
103
103
103
104
104
104
103
103
103
102
102
102
103
103
103
103
103
103
102
102
102
101
101
101
101
102
102
102
103
103
103
102
102
102
102
102
102
102
102
101
101
101
101
100
100
100
100
100
100
100
99
99
99
99
99
100
100
100
100
100
101
101
102
102
102
103
103
103
104
105
106
107
107
108
108
108
108
108
107
107
106
105
104
102
102
101
100
100
100
99
99
100
100
100
101
101
102
102
102
103
104
107
113
122
135
153
172
192
209
220
222
215
199
177
154
133
116
105
98
95
94
94
95
94
94
93
93
92
92
92
92
92
92
92
92
93
93
93
93
93
93
93
94
94
94
94
94
94
94
94
94
95
95
95
95
96
96
96
96
96
96
96
96
96
96
96
96
96
96
96
97
97
97
96
96
96
96
96
97
97
97
97
98
98
99
100
101
102
103
104
106
107
109
110
112
113
114
114
115
115
115
115
115
114
114
114
113
113
112
112
112
112
112
111
111
111
110
110
110
110
109
109
109
109
109
109
109
109
109
109
109
109
109
108
108
108
108
107
107
107
106
106
105
105
105
105
105
105
105
104
104
104
104
104
104
103
103
103
103
103
103
103
103
103
102
102
102
102
102
102
102
102
102
102
101
101
101
101
101
101
101
100
100
100
100
101
101
101
101
101
101
101
101
101
101
101
101
100
100
100
100
100
100
100
99
99
99
99
98
98
98
99
99
99
99
99
99
99
99
100
100
100
100
101
101
102
102
103
104
105
106
106
107
107
107
107
106
106
106
105
104
103
102
101
100
99
98
98
98
98
98
98
98
99
99
100
100
101
102
106
112
123
137
156
177
199
219
232
236
231
216
195
171
147
127
112
103
98
96
95
96
95
95
95
94
93
93
93
92
92
92
92
91
91
91
91
92
92
92
92
92
92
92
92
93
93
93
93
93
94
94
94
95
95
95
95
95
95
95
96
96
96
96
96
96
96
96
96
96
96
96
96
95
95
95
95
95
95
95
96
96
96
97
97
98
98
99
99
100
101
103
105
107
109
111
112
113
114
115
115
115
115
115
115
115
114
114
113
113
113
112
112
112
112
111
111
111
111
111
111
111
111
110
110
110
110
110
109
109
109
109
108
108
108
108
108
108
107
107
107
107
106
106
106
106
106
106
106
105
105
105
105
105
105
105
104
104
104
104
103
103
103
103
102
102
102
102
103
103
103
103
102
102
102
102
101
101
101
101
100
100
100
100
100
100
100
100
100
100
100
100
100
100
100
100
100
100
99
99
99
99
100
100
100
100
101
101
101
101
102
102
102
103
103
103
104
105
106
106
107
107
108
108
108
108
107
107
106
105
103
102
101
100
99
99
99
99
99
99
99
99
100
100
101
101
102
103
104
108
114
123
137
155
175
195
212
223
225
218
203
182
159
137
120
107
100
96
95
95
96
96
95
95
94
94
93
93
93
93
93
93
93
93
93
93
93
94
94
94
94
94
94
94
94
95
95
94
94
95
95
95
95
96
96
96
96
96
96
96
96
96
96
96
96
96
96
96
97
97
98
98
98
98
98
97
97
97
97
97
98
98
98
99
99
100
100
101
102
103
104
106
107
109
110
112
113
114
114
115
115
115
116
116
116
115
115
114
113
113
112
112
112
111
111
111
111
111
111
111
111
110
110
110
110
110
109
109
109
109
109
109
109
109
109
109
108
108
107
107
106
106
106
106
106
105
105
105
105
104
104
104
104
104
104
104
104
103
103
104
104
104
104
103
103
102
102
102
102
102
102
102
102
102
102
102
102
102
102
102
102
102
101
101
101
101
101
100
100
100
100
100
100
100
101
101
101
101
101
100
100
100
100
100
99
99
99
99
99
99
99
99
99
99
99
100
100
100
101
102
102
103
103
104
104
105
106
107
107
107
107
107
106
106
105
105
104
103
102
101
99
98
98
97
97
97
97
97
97
98
99
99
100
101
102
104
107
113
123
138
156
179
202
223
237
244
240
227
206
181
156
134
117
105
98
95
94
94
94
94
94
93
92
91
91
90
90
90
90
90
90
90
91
91
92
92
93
93
92
92
92
92
93
93
93
94
94
94
94
94
95
95
95
95
95
95
95
96
96
96
96
97
97
97
97
97
97
97
97
97
97
96
96
96
96
96
96
96
96
96
96
96
96
97
97
98
99
100
101
102
104
105
107
109
110
111
112
113
114
114
114
115
114
114
113
113
112
112
111
111
111
111
111
111
110
110
110
110
110
110
110
110
110
110
110
110
109
109
109
108
108
108
108
108
108
108
108
108
107
107
107
106
106
105
105
104
104
103
103
103
103
103
103
103
103
103
102
102
102
102
102
102
101
101
101
101
101
101
102
102
102
101
101
101
101
102
102
102
102
101
101
101
101
101
101
101
101
100
100
100
101
101
101
101
101
100
100
100
100
100
100
100
100
100
99
99
99
99
99
99
99
99
99
99
99
99
99
99
99
98
98
98
98
99
99
99
100
100
100
100
101
102
102
103
104
105
106
106
106
106
105
105
104
103
102
101
99
98
97
97
96
96
96
96
96
96
96
97
98
99
102
107
115
127
142
162
183
204
222
234
237
231
216
196
173
150
130
115
105
99
95
94
93
93
92
92
91
90
89
89
88
88
88
88
88
88
88
87
87
87
87
88
88
88
88
88
88
88
88
88
88
88
87
87
87
87
88
88
88
89
89
89
89
90
90
90
90
90
89
89
89
88
88
88
88
88
87
87
87
87
87
87
87
88
88
88
88
89
89
91
92
94
96
99
101
105
108
112
117
123
130
137
146
155
166
176
187
197
206
213
218
220
219
215
209
202
193
185
177
170
164
159
155
150
145
138
131
123
116
109
102
97
92
88
84
80
76
73
71
68
67
65
64
63
62
62
61
61
61
60
60
59
59
58
59
59
61
62
64
66
68
70
71
73
74
76
78
79
82
84
87
91
95
100
105
110
115
121
126
132
139
146
153
159
165
170
173
175
174
171
167
160
153
144
136
128
119
112
104
97
91
85
79
75
71
69
67
66
66
66
66
65
65
65
65
65
66
67
68
69
71
73
76
78
82
85
88
92
95
99
104
109
114
119
125
132
138
145
152
158
163
167
170
171
170
167
163
158
152
146
139
132
125
117
109
101
93
85
78
71
65
60
56
53
52
51
52
53
54
56
57
58
60
61
63
65
68
70
73
77
80
84
88
91
95
100
104
110
116
123
131
139
147
154
161
167
171
174
175
174
172
169
165
160
155
150
144
138
131
123
114
104
95
85
77
69
63
59
55
53
53
53
54
56
57
59
60
62
63
65
67
70
73
76
80
84
88
93
98
103
108
114
121
127
134
141
148
155
161
166
169
171
171
169
166
163
158
154
149
144
140
135
130
124
118
112
105
98
90
83
76
69
64
59
55
52
51
50
50
51
53
55
57
59
62
65
68
73
77
83
89
97
104
112
120
128
136
144
151
158
165
170
175
178
180
180
179
176
172
168
162
156
150
144
137
130
122
114
105
96
87
79
71
63
55
48
41
36
31
28
26
26
27
28
31
34
37
41
46
51
57
64
71
78
86
95
104
114
124
135
145
155
164
172
178
183
186
187
186
184
179
174
168
161
153
145
136
126
115
104
93
83
73
66
59
54
50
47
46
45
45
45
47
49
51
54
56
59
63
66
71
75
80
86
92
98
105
113
122
131
141
151
161
171
181
191
199
206
211
214
214
212
207
200
192
183
174
165
156
146
136
126
115
104
93
82
71
61
51
44
37
33
30
29
29
30
31
32
34
36
38
40
42
45
49
53
58
64
71
78
85
92
100
108
115
124
132
141
150
159
168
176
182
187
190
190
187
181
174
165
156
147
137
128
120
111
104
97
90
85
79
74
70
65
60
56
53
50
48
48
48
49
50
52
54
56
60
63
68
72
77
82
88
93
99
106
112
119
125
132
139
146
153
161
168
175
182
187
191
192
191
188
183
177
168
159
150
141
133
125
118
111
105
99
93
87
81
74
68
61
56
51
47
44
43
43
44
46
49
52
56
59
63
67
71
76
81
86
91
97
102
108
113
119
125
131
137
142
147
152
156
159
160
161
161
159
155
151
146
140
135
129
124
119
113
108
101
95
88
82
76
70
65
61
58
55
54
54
55
57
61
65
69
74
79
84
89
93
98
102
106
110
114
119
124
130
136
141
146
150
153
155
156
156
156
155
153
151
149
147
144
141
137
131
125
117
108
99
89
80
70
61
52
44
38
32
29
27
27
28
31
34
39
45
52
58
65
72
78
84
90
96
102
108
114
120
126
131
136
141
145
150
154
158
161
164
166
166
165
163
159
154
148
141
134
127
120
115
110
105
99
94
88
82
77
72
67
64
62
60
59
59
60
61
64
68
73
79
85
92
99
106
114
121
129
136
143
150
156
162
168
174
179
183
185
186
184
179
171
161
150
137
124
112
101
91
83
77
72
67
63
60
57
54
51
49
48
47
47
48
49
50
52
55
57
60
64
67
71
76
80
86
92
98
106
113
121
129
137
145
152
159
166
172
177
181
184
185
186
185
182
179
173
165
155
143
131
118
106
96
88
81
76
72
69
67
64
62
60
59
57
56
55
55
55
56
58
60
63
66
70
74
79
84
90
97
103
109
115
120
126
131
137
143
149
155
161
166
170
173
176
178
178
177
175
172
166
159
151
140
128
115
101
87
74
63
54
47
43
40
38
38
38
38
39
40
42
43
45
48
51
54
58
63
68
74
80
86
93
100
107
115
122
130
137
144
150
155
161
166
170
175
180
184
187
189
189
187
182
175
166
154
141
128
115
104
94
85
78
71
64
58
51
46
41
37
34
33
33
34
36
39
42
46
50
55
60
66
71
77
83
90
96
103
110
117
124
130
136
142
147
151
156
161
165
170
175
180
185
190
195
198
200
200
197
189
179
164
147
129
111
95
80
69
60
53
47
43
39
36
33
31
30
30
31
33
37
41
46
53
60
67
75
82
90
97
104
111
118
125
131
138
144
150
156
160
164
168
170
172
174
174
174
173
172
171
171
171
172
173
174
173
170
163
151
136
117
97
76
58
43
32
24
20
17
16
15
15
16
18
20
25
30
36
44
53
62
72
82
93
104
115
125
134
142
149
155
160
164
167
169
170
170
169
168
166
163
159
156
151
147
142
136
130
123
116
107
98
88
79
70
62
55
51
48
46
46
46
47
49
52
55
58
62
66
71
75
80
86
92
99
107
115
123
131
139
146
152
158
163
166
169
171
171
171
169
168
166
164
161
158
155
151
147
141
134
126
117
107
96
86
76
68
60
54
49
45
41
38
36
35
35
36
38
41
44
48
53
58
63
70
77
84
92
101
110
119
128
137
145
151
157
160
163
164
165
164
162
160
157
153
149
145
141
137
133
129
124
118
111
103
94
85
77
69
63
59
56
54
54
54
54
55
56
57
59
60
63
66
70
75
81
87
93
100
108
115
123
131
139
147
153
159
163
167
169
170
171
171
171
170
169
167
165
164
161
159
155
151
145
137
128
117
105
93
81
70
60
52
46
42
39
39
39
40
41
43
45
47
50
54
58
63
69
75
81
89
97
106
115
125
134
143
150
156
160
162
162
160
157
152
148
143
139
136
133
131
129
127
123
118
112
105
97
90
83
77
72
68
65
62
60
59
58
58
57
58
58
59
61
63
65
68
71
74
78
83
88
94
101
109
117
125
133
140
148
155
161
166
170
173
174
175
174
174
173
172
171
170
168
166
161
156
148
138
126
112
98
84
71
59
50
44
40
38
37
37
37
38
39
40
41
43
45
47
50
53
57
60
65
70
75
81
87
93
100
108
116
124
132
139
146
151
155
158
160
160
160
160
160
160
159
158
156
152
147
139
130
120
110
101
92
86
81
77
74
71
68
66
63
61
59
58
58
58
59
60
61
62
64
67
69
72
74
77
81
85
89
94
100
106
112
119
127
135
144
153
162
171
178
185
189
192
192
191
188
184
180
174
169
163
156
149
141
132
122
112
101
91
81
73
66
60
55
51
47
45
44
43
44
44
46
48
50
52
55
58
61
65
68
72
76
81
86
92
98
105
112
120
127
135
143
152
160
169
177
186
194
201
209
215
221
226
229
230
228
223
215
204
191
176
161
145
129
114
98
84
69
57
45
36
28
23
19
17
15
15
16
16
17
18
20
22
24
26
30
34
38
43
48
54
59
65
71
77
83
89
95
102
109
117
125
134
142
150
157
163
167
171
174
176
178
179
180
179
176
172
166
158
149
138
127
116
105
95
85
76
68
61
55
50
46
43
41
40
41
42
44
47
50
54
58
63
69
75
81
87
94
101
108
115
123
131
140
148
156
164
170
176
180
183
184
182
179
172
164
153
141
128
115
104
94
86
80
76
73
71
70
68
66
64
62
60
59
58
57
58
59
61
63
66
69
73
78
84
90
96
103
110
118
125
132
138
145
151
157
163
168
173
176
179
180
180
177
172
165
155
143
130
116
102
89
78
70
63
58
55
53
50
48
46
45
44
44
45
47
50
54
58
63
69
75
81
87
94
100
106
112
119
125
132
139
146
154
162
170
179
187
196
203
210
216
219
220
218
213
206
196
184
170
154
137
120
103
86
71
58
46
37
28
21
16
12
9
8
7
8
9
12
15
18
22
28
34
40
47
54
61
69
77
85
93
102
112
122
132
142
152
161
169
175
180
182
182
179
172
164
154
142
131
120
110
101
95
89
85
82
80
77
74
72
69
67
65
63
63
63
63
65
66
68
70
72
76
80
84
90
96
102
109
117
125
134
143
152
161
169
177
184
190
195
198
199
197
192
185
175
162
149
134
119
105
93
83
76
70
66
64
62
61
61
60
60
60
60
60
60
61
61
63
64
66
69
73
77
82
87
92
97
102
106
110
113
116
118
120
122
125
128
132
135
138
139
140
139
138
138
138
139
140
142
143
142
139
132
124
114
104
95
88
82
77
74
72
71
71
70
70
70
71
72
73
76
79
83
88
93
99
105
112
120
127
134
141
147
153
159
164
169
174
178
181
183
184
183
181
177
172
166
159
152
144
135
124
113
101
89
78
67
58
50
43
38
34
31
30
30
31
32
34
37
40
44
48
53
58
63
70
76
84
92
100
109
118
126
134
141
148
153
158
161
164
165
166
165
163
159
155
150
143
136
127
117
108
99
90
83
78
74
70
68
66
64
62
61
59
58
58
57
57
56
56
56
57
59
61
64
68
72
77
82
89
95
102
109
117
124
131
138
145
151
156
159
161
162
161
160
158
156
154
153
151
148
145
139
133
126
118
111
105
100
95
92
89
87
85
83
82
80
79
78
77
77
77
77
77
78
79
81
83
85
88
91
95
99
103
107
111
115
120
126
131
136
140
143
144
145
144
143
141
140
139
138
138
138
137
135
130
124
116
107
97
89
82
76
72
70
69
68
67
67
67
68
68
69
71
73
75
78
81
86
91
96
102
108
114
119
125
129
134
137
140
143
147
151
155
161
167
172
178
181
183
182
178
171
162
150
138
125
112
100
89
80
73
67
62
59
56
53
51
49
47
45
44
44
44
45
46
48
50
52
55
59
63
68
74
80
86
93
101
108
116
125
133
142
151
160
170
181
191
200
208
213
214
210
202
189
174
156
137
120
104
91
79
70
62
56
50
45
41
38
35
33
32
32
31
31
31
31
32
34
37
41
45
50
56
62
68
74
81
88
95
103
110
119
127
137
147
159
171
184
196
207
216
221
223
218
209
195
177
158
139
122
108
98
91
87
84
82
80
78
76
75
74
73
74
74
76
78
81
84
87
91
96
100
104
108
112
116
119
122
124
126
127
127
127
129
131
135
140
146
152
158
162
165
166
165
163
159
153
145
135
124
112
99
86
74
64
56
49
45
42
40
38
37
37
37
37
38
40
43
47
52
57
63
69
75
82
89
97
105
114
123
131
140
149
158
167
176
184
191
197
200
202
201
198
193
186
177
167
155
143
130
117
104
92
81
70
61
52
45
38
33
29
26
23
22
21
20
19
19
19
20
21
23
26
30
34
40
48
56
65
75
85
95
105
116
127
138
150
161
171
179
185
189
190
188
184
178
169
160
150
141
133
126
120
116
113
111
109
107
106
104
102
101
98
95
92
88
84
80
75
71
67
64
62
60
60
61
64
69
75
82
91
100
110
121
132
143
154
164
174
182
190
197
202
206
209
211
211
208
203
195
183
169
153
135
118
102
89
78
70
65
61
59
57
55
54
51
49
46
43
39
35
32
29
26
24
23
24
27
30
34
39
45
51
57
63
71
78
87
97
107
117
127
137
147
155
162
168
172
175
177
178
179
180
180
179
176
171
164
154
142
128
115
103
93
84
78
74
71
70
70
70
70
71
73
74
77
81
87
93
100
107
115
122
130
136
143
150
157
165
173
181
189
196
202
206
209
209
206
202
196
188
178
167
154
140
125
110
94
78
64
51
39
29
20
13
7
3
1
1
1
3
5
8
11
14
18
23
28
34
40
47
55
62
70
79
87
96
104
113
122
132
141
149
157
163
167
168
168
166
162
157
151
144
137
128
120
111
103
96
90
86
83
81
80
79
78
78
78
79
80
82
84
87
90
93
97
100
103
106
108
110
111
113
115
118
122
128
134
142
151
160
168
176
181
185
187
186
183
179
173
165
155
144
131
118
103
90
77
67
59
53
49
47
45
45
45
45
46
48
51
54
58
62
66
71
75
80
85
91
97
103
110
118
126
135
144
153
162
170
177
182
186
189
188
186
182
175
166
157
146
135
123
112
100
89
78
69
60
54
49
46
44
43
42
42
43
44
45
47
50
53
57
61
66
70
75
80
85
91
98
105
112
121
129
138
148
157
166
174
181
186
190
192
192
190
187
182
175
166
155
143
130
118
107
97
88
81
74
68
63
58
53
49
44
40
37
33
31
29
29
29
31
33
36
40
45
50
55
61
67
72
79
86
94
103
114
125
137
149
160
170
177
181
182
178
171
161
148
135
123
112
105
101
98
98
97
97
96
95
93
90
88
86
84
82
80
79
78
78
78
79
81
83
85
88
92
96
100
104
108
113
118
123
128
135
143
152
161
171
181
190
197
204
208
210
209
204
194
181
165
146
126
106
89
75
64
56
51
48
46
45
45
44
43
42
41
40
40
40
41
42
44
47
49
52
55
58
61
64
67
71
75
80
86
93
101
109
118
128
136
144
151
157
161
163
164
164
164
163
162
160
158
153
146
137
126
113
100
88
79
71
67
65
65
66
69
71
74
78
82
87
92
97
103
109
115
122
128
135
141
148
155
163
171
179
187
196
203
210
215
217
218
215
209
200
188
173
156
137
117
98
81
65
52
41
32
26
21
17
14
11
10
8
7
6
6
7
8
11
15
20
25
31
37
44
51
59
66
74
82
90
99
108
117
127
137
148
159
169
179
188
195
200
202
201
197
190
179
166
151
136
123
111
101
94
89
85
81
78
75
72
69
67
64
62
60
59
58
58
58
59
60
62
64
67
70
75
80
85
91
97
104
112
120
129
139
151
163
175
187
199
209
217
221
222
217
208
194
176
157
137
118
102
90
81
74
70
66
64
61
59
58
56
55
54
52
51
51
50
50
50
50
51
52
54
57
60
64
68
73
78
83
88
94
101
108
116
126
136
147
158
169
179
188
194
196
194
188
177
162
146
130
115
103
93
86
82
79
78
77
76
76
76
76
76
76
77
78
79
81
83
85
87
90
94
98
103
109
115
122
129
135
141
147
154
160
166
173
179
186
192
198
203
206
207
206
201
192
179
161
139
117
94
74
58
46
37
33
30
29
28
27
26
25
24
23
23
23
23
24
25
27
30
33
37
42
47
54
61
68
75
82
90
97
104
111
119
127
136
145
155
165
175
186
195
205
212
218
222
222
220
213
202
187
170
150
129
109
92
78
67
60
55
52
50
49
48
48
48
48
49
50
52
55
58
62
66
71
76
81
86
90
95
100
105
110
116
122
129
135
142
149
156
164
172
180
187
194
199
203
204
203
199
193
182
169
153
135
116
98
80
65
51
40
30
22
15
10
6
4
3
4
7
10
15
20
26
33
40
48
56
63
71
79
87
96
105
114
124
134
144
155
165
175
186
195
204
212
218
222
223
221
216
208
196
182
165
148
131
115
101
88
77
68
60
52
46
40
35
31
28
25
24
24
25
27
29
33
36
40
45
49
54
59
64
70
76
84
91
100
109
120
131
142
154
166
176
185
192
195
195
191
184
174
162
149
136
124
114
105
98
91
85
79
74
70
66
64
62
62
61
62
62
63
65
67
69
72
75
79
82
86
90
94
99
104
110
117
124
131
140
148
157
167
176
185
192
198
203
204
203
199
191
180
165
146
127
107
89
73
62
53
48
45
44
43
44
45
47
49
52
55
59
63
67
72
76
81
86
91
96
101
105
110
115
121
126
132
137
143
149
156
163
170
176
182
186
187
186
183
176
168
158
146
133
118
103
87
72
58
47
39
33
30
28
28
29
30
32
34
37
41
45
49
54
59
64
70
75
81
87
93
99
106
112
119
126
133
141
148
156
164
172
180
188
196
202
207
210
210
208
202
193
181
166
149
131
114
97
81
68
57
48
41
36
33
32
33
34
37
40
43
47
50
54
58
62
66
70
74
77
81
85
90
94
100
106
112
119
126
132
139
146
152
158
163
167
170
171
171
168
162
155
145
134
122
110
98
88
79
72
66
62
59
56
55
55
56
58
61
65
68
72
75
77
80
83
86
89
93
98
102
108
114
120
127
133
140
146
151
156
160
163
164
164
163
160
156
150
144
136
129
122
114
106
98
90
83
76
70
66
64
64
65
67
70
73
76
79
81
83
84
85
86
88
91
94
98
103
108
114
119
123
127
131
134
136
138
139
139
137
135
131
126
120
113
106
99
93
87
81
77
74
71
70
69
69
70
72
75
79
84
90
96
102
109
116
123
129
136
141
146
150
153
155
156
156
156
155
154
153
152
151
150
148
146
144
140
134
127
118
108
97
86
75
66
58
52
48
45
44
44
46
48
51
54
57
61
66
71
76
81
87
93
98
104
110
116
123
129
137
144
151
158
165
171
176
181
184
187
188
187
185
181
175
167
158
147
135
122
109
96
83
73
63
55
49
44
41
39
39
41
44
47
51
55
59
62
66
69
72
76
80
84
89
94
100
106
112
119
125
131
137
142
146
150
152
154
155
154
153
150
146
141
136
131
125
119
113
106
99
91
84
78
72
67
64
61
60
59
59
60
60
62
63
64
66
68
70
74
78
83
89
96
102
108
115
120
126
131
135
138
139
140
138
135
131
125
119
113
107
102
98
94
91
89
87
86
86
86
87
89
91
93
96
99
103
107
110
114
117
120
123
127
130
134
137
141
145
149
153
157
160
162
163
162
160
155
149
140
130
118
105
93
82
72
63
57
53
51
50
51
53
56
60
63
67
70
73
75
77
79
81
83
85
88
92
96
100
105
110
115
121
128
134
140
147
153
159
164
168
170
170
167
160
151
139
126
112
100
89
80
73
68
64
62
61
61
61
62
64
65
67
69
71
73
75
78
81
85
89
93
98
104
110
116
122
129
135
140
146
151
155
160
163
167
169
172
174
176
177
176
175
171
164
154
141
126
111
96
82
71
63
58
55
54
54
55
56
58
59
60
61
62
63
64
66
68
69
72
74
77
81
85
90
95
100
106
111
117
123
128
133
137
140
142
143
144
143
142
141
139
138
136
134
131
128
124
120
114
108
101
93
85
79
74
70
68
67
67
67
68
69
70
72
74
77
80
83
86
90
93
97
102
106
111
117
124
131
138
145
153
159
165
170
173
174
173
172
169
165
162
157
153
149
145
140
135
128
121
113
104
94
84
74
64
56
49
44
40
38
37
37
38
40
43
45
48
51
54
58
61
66
70
75
81
87
94
102
110
118
127
135
143
151
156
160
163
164
163
162
159
156
153
150
146
141
136
129
122
113
104
95
86
78
71
66
62
59
57
57
58
59
62
66
70
74
79
85
90
95
100
106
112
118
124
130
136
142
147
153
159
163
167
170
171
170
167
164
159
154
149
144
138
131
123
115
105
94
83
72
62
54
46
41
37
35
35
37
39
43
47
51
55
60
65
70
75
80
85
91
97
103
110
117
124
130
137
143
148
152
155
156
155
152
149
144
139
134
130
127
123
120
117
112
106
99
92
84
77
70
63
58
55
52
52
53
55
59
63
68
74
80
85
91
97
103
109
116
122
129
136
143
150
156
162
167
171
174
175
175
174
171
167
162
156
149
143
138
133
129
124
119
114
107
99
90
81
72
64
57
52
49
47
46
48
50
53
57
61
65
70
74
78
83
88
93
99
105
110
116
122
128
133
138
141
143
144
143
139
135
129
123
117
111
107
104
103
103
103
103
102
99
95
90
85
80
76
73
72
72
74
78
82
87
93
99
106
113
119
126
132
138
142
147
151
155
159
162
165
168
170
170
169
167
162
156
148
138
128
118
108
100
93
87
82
78
74
70
66
62
58
54
50
47
45
45
45
47
50
54
59
64
70
77
83
90
96
102
108
113
117
120
124
127
129
132
134
135
134
133
130
125
120
115
110
106
102
99
98
96
95
94
92
91
89
88
87
87
88
89
92
95
99
103
108
113
118
124
129
135
140
145
151
156
161
165
169
173
175
175
175
173
170
165
159
152
144
135
125
116
106
96
87
77
68
58
49
41
34
28
25
23
22
23
25
28
32
38
44
51
59
67
75
83
91
99
106
114
121
128
134
140
144
148
152
154
155
155
153
151
147
143
138
133
128
124
119
113
107
100
93
85
78
72
68
65
64
65
67
70
75
80
85
91
97
102
108
113
118
123
128
133
137
140
143
145
146
146
145
144
141
137
133
127
121
113
105
96
87
78
71
65
61
59
58
58
58
59
60
62
64
67
71
75
80
85
91
96
102
109
115
122
129
137
144
151
157
162
167
170
174
176
178
178
178
175
172
166
158
149
137
124
110
97
84
74
65
59
55
53
52
52
52
53
54
56
58
61
65
69
73
78
84
89
95
101
107
113
119
125
132
138
144
149
153
156
158
159
160
159
158
156
154
150
146
140
133
124
114
103
91
80
70
61
54
50
48
48
50
53
57
62
67
73
80
87
94
101
108
114
120
126
131
136
140
143
144
145
145
144
142
140
137
135
132
129
126
122
119
115
111
105
99
93
86
80
74
70
67
64
63
63
63
65
67
71
76
83
90
99
107
116
124
133
141
148
154
160
164
166
167
166
164
160
155
149
142
134
126
119
111
104
97
91
85
80
75
71
67
63
61
58
57
56
57
58
60
63
67
72
77
83
89
95
102
109
117
124
132
139
146
151
155
159
160
160
159
156
152
146
139
132
123
115
106
97
88
79
71
64
58
53
50
47
46
46
47
50
54
59
65
72
79
87
94
102
109
117
124
130
136
142
146
149
151
153
153
153
152
150
147
143
137
129
121
111
101
91
82
73
66
61
58
56
55
55
57
59
62
66
71
76
81
86
91
97
102
108
114
121
127
134
139
145
149
153
156
158
158
158
156
153
149
143
137
129
120
110
100
90
80
71
64
58
55
53
52
54
56
60
65
71
77
84
90
97
103
109
114
118
123
126
129
132
135
137
139
141
143
145
146
147
148
147
145
141
136
129
121
111
100
89
78
67
58
51
47
46
48
52
58
66
74
83
92
101
110
118
126
132
138
142
146
149
151
152
153
153
153
152
152
151
150
149
147
144
140
135
129
122
114
105
95
84
72
61
50
40
33
29
28
31
36
44
53
62
73
82
92
101
109
117
124
130
136
141
145
148
150
152
154
154
154
152
149
144
137
129
120
111
102
93
84
77
70
65
61
58
56
55
56
58
61
65
71
77
84
90
97
103
109
114
118
122
126
129
132
134
136
137
137
135
132
128
123
117
110
103
95
86
79
71
65
61
58
57
58
60
65
70
76
84
92
100
109
118
126
134
142
149
155
160
165
169
172
175
177
178
178
177
175
172
167
160
153
144
134
122
110
96
82
68
54
41
30
21
16
14
15
18
24
31
40
49
58
68
77
86
95
104
113
121
129
136
142
148
153
157
160
162
163
162
159
155
150
144
138
131
124
117
109
101
92
83
73
65
57
51
47
46
47
51
57
63
71
79
88
96
105
113
121
129
136
143
150
156
161
164
167
168
168
167
164
160
156
150
144
138
131
124
116
107
97
86
75
64
55
46
40
36
35
35
38
42
48
56
65
75
85
96
107
117
127
137
145
153
160
164
167
168
166
163
157
150
142
132
122
111
99
87
75
64
54
46
39
35
33
33
35
39
44
49
54
60
66
72
79
87
95
103
112
120
129
137
145
153
161
168
174
179
182
184
183
179
173
164
153
140
126
112
97
84
72
62
54
49
46
45
45
47
50
54
58
63
68
73
79
85
91
97
104
110
117
124
130
137
144
150
156
162
167
172
175
176
176
174
168
160
149
135
120
104
88
73
61
50
42
37
33
30
30
31
33
37
43
49
58
67
76
86
95
104
113
120
127
133
138
144
148
153
156
159
161
160
159
155
150
143
135
126
116
106
97
88
80
74
69
66
65
64
65
67
69
73
78
84
92
100
110
121
132
143
154
164
173
182
188
194
198
201
201
201
197
192
184
173
160
145
129
112
95
80
66
54
45
38
32
29
26
25
25
26
28
31
35
40
46
53
61
70
80
91
103
115
127
139
150
160
168
173
176
177
175
170
163
154
142
129
116
102
89
77
66
58
52
47
44
43
43
45
49
54
60
67
74
82
89
97
105
113
120
127
134
141
147
153
158
161
163
164
163
160
156
150
143
135
126
115
104
93
81
70
61
53
48
45
44
47
51
57
64
72
81
90
100
109
117
126
134
142
150
156
162
167
170
172
172
170
167
161
153
142
130
117
103
88
74
60
48
36
26
19
14
13
16
21
30
40
52
66
80
95
110
125
139
153
165
176
185
193
198
202
203
202
198
193
185
175
164
152
139
126
112
99
86
74
62
51
42
33
26
21
18
17
19
23
30
38
49
60
73
85
98
110
122
133
143
152
159
164
167
168
166
161
153
143
131
118
105
93
81
70
62
54
48
43
40
39
40
43
47
53
61
70
80
91
102
114
126
138
150
161
172
180
188
193
196
197
196
192
186
176
164
150
134
117
100
83
66
51
38
27
18
12
9
9
13
19
28
40
54
69
85
101
117
131
145
156
166
173
179
182
184
185
184
181
177
172
165
157
147
137
126
116
106
96
88
79
72
64
57
51
46
43
42
42
46
51
59
69
80
92
105
118
129
140
148
155
160
164
165
164
161
156
149
139
127
113
99
85
72
60
49
41
35
31
28
27
27
28
30
34
39
46
56
67
81
96
111
127
143
158
171
182
192
198
202
204
203
199
192
183
170
154
136
117
98
81
66
55
46
41
39
39
41
44
48
54
61
70
79
90
101
112
123
133
142
151
158
163
167
170
170
170
167
163
157
149
139
127
114
99
84
70
58
48
42
38
38
40
45
53
62
72
84
96
108
121
134
147
158
168
176
181
184
183
179
172
162
151
137
122
106
91
76
62
50
40
32
26
22
20
19
21
24
29
36
44
53
64
76
90
105
121
138
155
171
184
195
203
207
207
203
195
184
170
153
134
114
95
76
60
46
35
28
24
23
26
32
39
47
57
67
77
88
99
110
121
132
142
151
159
167
173
178
181
183
182
179
173
163
152
138
124
109
95
82
71
62
53
47
42
39
39
41
46
52
61
71
83
95
108
121
134
146
157
168
177
184
189
192
192
190
185
177
166
151
135
117
98
79
61
45
31
20
12
6
3
3
5
10
17
27
37
49
62
76
90
104
119
134
148
163
177
189
201
210
217
222
223
222
217
209
196
181
162
140
117
94
72
52
34
20
10
3
0
0
2
7
14
22
32
42
53
64
76
88
100
111
121
131
140
148
156
163
168
173
175
176
174
170
163
152
138
121
102
83
65
51
40
33
30
31
35
41
50
60
71
84
97
110
122
132
142
150
156
161
165
167
169
169
167
165
162
157
151
144
135
123
110
96
82
68
56
47
40
38
38
43
50
59
69
81
94
106
119
132
143
154
164
173
179
183
185
183
179
172
162
149
135
118
100
82
64
47
32
20
12
7
5
6
10
16
25
34
45
57
69
81
94
106
117
129
140
150
160
169
177
183
186
188
186
182
175
166
153
139
124
108
91
76
62
51
43
38
37
39
44
52
61
71
82
92
103
114
124
134
144
152
159
164
167
168
166
162
157
149
140
130
119
108
97
87
77
68
59
51
45
39
36
35
37
42
49
58
69
82
95
108
122
135
148
161
172
181
188
193
195
194
190
182
172
160
145
129
113
97
82
69
57
47
40
34
31
29
30
33
38
43
51
59
68
78
88
99
111
123
134
145
155
163
169
173
174
172
167
158
146
132
117
102
88
76
66
58
53
51
51
54
58
64
71
79
87
96
104
112
119
126
132
137
141
144
146
146
145
142
138
133
126
119
112
105
99
94
90
87
85
83
81
80
80
81
84
88
93
98
105
112
118
124
129
133
135
136
136
135
133
131
129
127
124
120
116
111
105
99
93
86
80
75
71
67
65
64
65
67
71
75
80
85
90
96
100
104
107
109
111
112
113
115
118
122
127
132
137
141
144
145
144
141
136
131
124
117
110
104
99
95
92
89
87
85
83
82
81
80
80
81
83
86
89
94
99
104
110
116
121
126
130
134
136
138
138
137
136
132
128
122
115
108
101
94
89
84
80
78
76
75
76
77
80
84
88
93
99
104
110
116
122
127
131
135
137
138
138
136
133
127
120
111
101
91
81
73
67
64
63
64
67
72
77
83
89
95
101
106
111
115
118
121
123
126
128
131
133
135
137
139
139
137
134
128
121
111
101
90
80
73
68
67
68
72
77
83
89
96
102
108
113
118
121
125
128
130
133
135
136
136
135
134
131
128
124
119
113
107
100
93
85
79
74
70
69
70
73
76
81
86
91
96
102
108
114
120
126
132
137
141
144
145
144
141
136
130
123
116
108
100
92
86
81
77
75
75
75
77
80
82
85
87
90
92
95
99
103
107
112
117
122
128
134
140
145
151
155
159
161
161
159
154
146
137
126
114
103
93
85
79
76
74
75
76
77
79
81
84
86
89
91
94
97
101
105
110
116
121
128
133
138
143
145
146
146
143
139
134
128
121
114
108
102
97
93
89
86
83
81
78
75
72
70
69
70
73
77
82
89
97
105
113
121
128
133
137
140
140
139
136
132
127
121
116
111
107
103
99
96
93
89
85
81
77
74
72
70
70
71
73
77
83
90
98
106
115
123
130
137
142
146
148
149
149
146
142
137
130
121
112
102
92
82
72
64
58
53
51
51
54
60
67
76
85
96
107
118
128
137
145
151
156
160
161
161
159
156
152
146
139
131
123
113
104
94
84
74
65
58
52
48
47
49
54
61
72
84
98
113
129
144
158
170
180
188
193
194
193
187
179
166
152
135
117
100
84
71
59
49
41
35
31
28
28
29
32
37
44
52
62
72
83
94
105
117
128
139
149
159
167
173
177
178
176
171
163
153
140
126
112
98
86
76
67
61
58
57
58
61
66
71
77
83
89
95
100
106
112
117
122
126
130
132
134
135
136
136
135
133
131
127
123
117
111
104
97
89
82
76
72
69
69
70
73
77
81
86
91
96
101
106
112
117
122
127
131
134
137
139
141
141
140
138
134
128
121
112
104
95
88
81
77
75
74
75
77
80
83
86
89
92
96
99
102
105
108
110
111
112
113
113
113
112
112
111
110
108
107
105
104
102
101
99
98
97
97
97
99
101
104
107
110
113
116
119
121
123
124
125
125
124
124
123
122
122
121
121
120
120
118
117
115
112
109
106
102
98
95
92
90
89
89
90
92
95
99
104
109
115
121
127
132
137
140
142
141
139
134
129
122
114
106
98
90
82
74
67
62
57
55
54
55
57
62
68
75
83
91
100
108
116
124
131
138
143
148
151
153
154
153
150
145
139
130
120
108
96
84
73
65
59
57
58
61
66
73
80
89
99
109
118
128
137
144
151
156
160
162
162
161
158
153
147
139
129
117
105
92
80
68
57
49
43
39
38
39
42
47
52
58
64
70
77
83
89
95
100
105
108
111
113
115
116
117
118
119
120
121
122
122
121
119
117
114
112
110
110
111
112
114
117
119
120
121
120
119
116
113
110
106
102
99
97
96
96
97
98
99
100
101
101
100
98
96
93
90
87
84
83
84
86
90
96
101
107
112
115
118
120
121
121
120
120
119
119
118
118
117
116
115
112
110
106
102
98
94
89
85
82
79
79
80
83
87
91
96
100
104
106
109
111
113
115
117
119
121
123
125
127
128
129
130
129
128
126
122
118
113
109
104
99
96
93
91
91
91
93
94
96
97
98
100
101
102
104
106
108
110
112
115
117
120
122
124
125
126
125
123
121
117
112
106
100
94
89
84
81
79
79
80
82
86
89
94
98
102
106
109
112
115
117
119
122
124
127
129
131
131
131
129
126
121
115
108
101
95
89
85
82
81
81
82
85
89
93
98
102
107
110
113
116
118
119
120
121
122
123
123
123
123
123
122
121
118
115
111
107
102
97
92
88
86
86
87
91
97
105
114
123
130
136
140
142
140
137
133
127
121
115
109
104
100
97
93
91
88
86
83
81
79
77
76
75
74
74
74
76
79
83
89
96
104
113
121
129
135
139
141
141
139
135
129
123
117
110
105
100
96
94
92
91
91
91
92
93
95
96
98
100
102
105
108
111
114
118
122
125
127
128
128
127
124
121
116
111
105
98
93
88
84
81
79
79
80
81
83
86
89
92
95
99
103
108
113
118
124
129
133
137
139
138
136
132
125
118
109
100
92
84
79
75
74
74
76
78
82
85
88
91
93
95
98
100
102
104
105
106
108
109
111
112
115
117
119
121
123
124
125
124
124
122
120
119
117
115
114
114
114
115
115
116
116
116
116
115
114
112
109
105
101
97
92
89
86
84
83
83
85
87
90
94
98
102
106
109
112
113
114
114
114
113
112
112
111
110
109
108
107
104
102
99
96
94
94
95
99
103
109
115
120
125
130
133
136
138
140
140
140
139
136
133
129
125
121
116
111
107
102
97
92
88
83
80
78
76
76
77
79
82
87
91
97
102
108
113
118
123
127
130
132
132
131
128
124
119
113
107
102
97
93
89
86
84
82
82
82
83
85
89
93
97
102
108
113
118
122
125
128
129
129
128
127
124
121
117
113
109
104
101
97
95
92
90
89
88
87
88
89
90
93
95
98
100
103
106
109
111
114
116
117
116
115
113
110
106
103
101
99
97
96
96
97
97
99
100
102
104
107
109
112
116
119
123
127
130
133
135
137
138
138
138
136
133
129
124
118
111
103
96
89
83
79
75
74
73
74
76
79
82
87
92
97
102
107
112
117
121
124
126
127
128
127
126
124
122
118
113
108
103
98
93
90
87
86
85
86
87
88
91
94
98
103
107
113
118
122
126
129
131
132
130
128
123
118
112
106
100
94
88
83
79
76
74
74
76
78
81
85
89
93
98
104
109
115
121
126
130
133
134
135
134
132
130
127
124
120
116
111
107
102
98
93
88
83
79
76
75
76
78
81
85
90
96
102
109
116
123
129
135
138
140
141
139
136
132
127
122
116
110
104
99
94
90
88
86
86
87
88
89
91
93
94
96
98
99
101
103
104
106
108
110
112
114
115
117
117
118
118
118
117
115
113
110
107
103
100
97
96
95
94
95
96
97
98
99
100
102
103
105
106
107
108
109
110
111
112
113
114
114
114
113
112
110
107
104
100
96
93
90
88
87
88
88
89
90
91
92
93
94
95
96
97
98
100
103
106
110
114
117
121
124
126
127
128
126
124
121
118
114
111
108
106
105
103
102
101
99
98
96
95
94
93
93
94
95
96
98
101
105
109
114
119
124
127
130
131
130
127
123
117
111
104
99
94
91
90
90
91
93
94
95
96
96
96
96
96
97
98
100
103
107
111
116
121
125
129
132
134
134
133
131
127
121
115
109
103
98
94
92
91
92
93
94
95
95
95
95
95
95
96
96
97
99
101
104
107
112
117
122
126
130
131
131
129
124
117
109
101
93
86
80
77
75
75
75
76
77
78
79
80
81
83
86
89
93
98
104
110
117
124
131
139
145
150
154
156
156
153
149
142
134
124
114
105
97
90
84
79
76
73
71
70
70
71
74
79
85
92
100
109
117
126
133
139
143
146
147
146
142
138
132
125
117
110
104
98
93
89
86
83
80
77
75
72
69
67
66
67
69
74
80
88
97
107
118
128
137
145
150
152
152
149
144
138
132
126
121
117
113
111
109
106
104
101
98
95
92
89
88
88
89
91
95
99
104
108
112
116
118
119
119
118
116
113
109
105
101
97
94
91
89
87
86
86
87
88
90
92
94
95
97
98
101
104
109
114
120
125
129
132
133
131
128
123
117
111
105
100
96
93
91
90
90
91
91
92
92
93
94
95
96
97
99
101
103
106
110
114
120
126
131
136
139
141
140
137
132
125
117
108
99
90
83
77
72
69
66
64
64
64
65
68
72
78
85
93
102
112
121
130
139
146
152
156
158
158
156
153
148
143
136
130
123
116
109
103
98
93
89
85
82
80
78
77
78
79
83
87
93
100
108
115
123
129
135
139
141
141
139
136
131
125
119
112
105
99
92
86
80
75
71
68
66
66
67
70
73
77
82
88
93
99
105
111
117
123
129
135
140
144
146
146
145
141
137
131
124
116
108
100
92
85
79
75
73
73
76
80
86
92
99
106
112
117
121
123
124
125
125
125
124
123
122
120
117
114
110
107
102
98
94
91
87
84
82
81
82
84
87
92
98
105
111
118
125
131
135
139
140
140
139
136
132
129
125
121
117
113
109
104
99
94
88
83
78
75
74
74
77
82
89
97
106
114
122
129
133
136
137
136
133
130
126
122
117
113
109
106
103
99
96
93
90
86
82
79
77
75
75
75
78
83
89
97
107
117
127
135
142
147
148
148
145
141
135
129
124
118
113
108
104
100
96
91
87
82
79
76
75
76
78
81
85
89
94
98
102
107
111
116
120
122
124
125
125
125
123
121
119
116
113
110
105
101
96
92
88
84
82
82
83
86
91
96
102
108
113
117
121
124
127
128
129
129
129
127
126
124
122
120
118
116
113
111
108
105
102
100
98
96
96
96
97
98
100
103
106
110
113
115
117
119
119
118
117
115
112
109
106
103
100
98
96
93
90
88
85
83
82
82
84
86
89
93
97
101
105
109
113
116
120
124
127
130
132
133
133
133
132
131
129
127
124
122
120
117
115
112
108
104
100
95
91
88
86
85
84
85
86
88
90
94
98
103
109
114
119
123
126
128
128
128
126
124
122
119
116
113
110
107
105
103
101
100
98
98
97
98
98
99
99
100
100
100
100
101
101
101
101
101
102
102
102
103
103
105
106
107
109
110
111
112
113
113
112
112
111
111
111
111
112
114
115
117
118
118
118
117
116
114
112
109
106
103
100
98
95
93
92
90
90
89
89
89
90
91
92
94
95
97
99
101
102
103
104
105
106
107
108
109
109
109
108
106
103
99
95
90
86
83
81
79
80
81
83
86
90
94
99
104
108
113
117
121
124
127
129
131
132
132
132
130
128
125
122
118
113
109
104
99
94
90
87
85
84
83
84
85
86
87
89
91
94
97
100
102
105
106
108
108
109
109
109
109
108
107
105
103
101
100
99
99
99
101
102
104
106
107
109
110
111
112
114