61
56
51
46
42
39
36
34
33
32
32
33
35
38
41
44
49
53
58
62
67
71
75
80
84
88
92
96
100
103
106
108
110
111
110
108
105
101
95
90
83
77
70
64
57
50
44
38
32
28
25
22
21
21
22
24
27
31
37
42
49
55
62
68
75
81
87
92
96
101
104
108
111
113
114
115
115
113
111
108
104
100
96
91
86
81
74
67
60
54
47
41
37
33
31
29
29
30
32
35
38
43
48
53
59
65
71
77
82
87
91
95
97
99
101
102
102
102
102
100
99
97
94
91
88
85
81
77
72
68
63
58
53
49
45
41
39
37
36
36
38
41
45
50
56
62
68
75
82
88
95
100
105
110
113
116
119
120
121
121
120
118
116
112
108
104
99
95
90
84
78
72
65
58
51
43
36
30
24
19
15
13
11
11
12
13
16
18
22
26
31
36
43
50
57
65
73
81
89
97
105
112
118
123
128
131
133
135
135
134
132
130
126
122
117
111
105
99
92
84
76
67
59
52
45
39
34
30
27
25
23
23
23
25
27
30
34
38
42
47
52
57
62
68
73
78
83
87
91
94
97
98
99
99
98
96
94
92
89
85
81
76
72
67
62
59
55
53
51
50
48
48
47
47
48
48
49
50
52
54
56
59
63
67
71
75
78
82
85
88
91
93
96
97
98
99
98
96
93
90
86
82
77
71
65
59
54
49
45
42
40
39
38
38
39
40
41
43
45
48
50
53
56
60
64
69
74
78
83
87
92
96
101
104
108
110
112
112
111
110
107
104
100
95
90
85
79
73
67
62
57
52
48
45
42
40
39
38
39
40
41
43
45
47
49
52
55
59
62
66
69
73
76
80
83
85
88
90
91
93
94
94
94
94
93
92
89
86
82
77
71
66
60
55
50
47
44
42
42
43
44
47
49
52
56
60
64
68
72
76
81
84
88
91
94
96
98
100
101
102
102
103
102
102
101
100
98
96
93
90
86
82
78
73
69
64
59
54
50
47
44
43
42
42
42
43
45
46
48
50
52
54
56
59
61
64
67
70
73
76
79
81
83
84
85
85
85
85
84
83
82
81
79
77
75
73
71
69
66
64
62
61
60
59
59
59
60
61
62
64
65
67
70
72
74
77
79
82
85
87
89
90
91
91
89
88
86
84
82
81
79
77
75
74
72
70
68
66
64
62
59
57
56
55
55
56
57
58
60
63
65
68
70
73
75
77
79
80
81
83
84
85
85
86
86
85
83
81
78
75
71
68
65
62
59
57
55
53
52
51
50
49
49
49
49
50
52
53
55
58
60
62
64
67
69
71
74
76
78
81
83
86
88
91
94
96
98
99
100
100
99
97
94
91
88
84
80
76
72
69
65
62
59
57
55
54
53
53
53
53
53
53
53
52
52
52
52
53
54
55
57
59
62
66
70
74
78
82
86
89
92
94
96
97
97
96
95
93
91
88
85
83
80
77
75
73
71
69
67
66
64
63
62
61
60
59
58
58
58
59
59
60
60
60
61
61
62
64
65
67
68
70
71
73
74
74
74
74
73
72
70
69
67
65
63
61
60
59
58
59
60
62
64
67
70
73
76
79
82
85
87
89
91
91
91
91
90
89
88
88
87
87
86
86
85
84
83
81
79
77
75
72
69
66
63
60
57
54
51
49
47
45
44
44
44
45
46
48
50
53
57
60
65
69
73
76
80
83
86
88
91
93
96
98
100
101
102
103
102
101
99
96
93
89
84
80
75
70
66
62
58
54
50
47
44
42
40
38
37
36
36
37
39
41
44
47
50
53
56
60
63
67
71
75
79
82
86
89
92
94
97
99
100
100
100
98
96
93
89
86
81
77
73
68
64
60
56
52
48
45
42
40
38
38
38
39
41
44
47
50
53
57
62
66
71
75
79
83
87
90
93
96
99
102
104
105
107
108
108
108
107
106
103
100
95
91
86
82
77
73
68
64
60
56
52
48
45
42
39
38
37
38
39
41
44
47
50
53
56
60
63
66
70
74
77
80
83
86
88
90
92
93
94
95
95
95
95
94
92
90
87
83
79
74
69
64
59
55
52
49
47
45
43
42
42
42
44
46
49
52
55
59
62
65
68
71
74
77
80
84
87
89
92
94
96
97
97
97
96
95
93
91
88
85
81
76
71
67
62
58
54
50
47
43
40
37
35
34
33
34
36
40
44
49
54
59
65
71
76
81
86
91
96
100
103
106
108
110
110
110
109
108
107
104
101
97
93
88
84
79
74
70
66
62
57
53
49
45
42
39
37
37
37
38
40
42
46
50
54
59
63
66
70
73
76
79
82
85
88
90
92
94
95
96
96
96
95
94
92
89
87
85
82
80
78
75
72
68
65
61
58
56
54
52
52
52
52
53
54
56
57
59
60
61
63
64
66
67
69
70
71
72
72
72
71
70
69
67
65
64
62
61
61
62
63
65
67
70
72
73
75
76
77
77
78
79
79
80
81
83
84
86
87
89
90
90
90
90
90
89
88
87
85
84
82
80
78
76
74
72
70
67
64
61
59
58
57
56
56
56
56
56
55
55
55
55
56
56
57
58
60
62
64
66
68
71
72
74
76
77
79
80
81
83
84
85
86
87
88
89
90
90
89
87
85
82
79
76
72
69
67
65
64
63
62
62
62
61
60
59
58
58
57
57
57
57
58
59
60
61
62
63
65
67
69
72
74
75
77
78
79
80
81
81
80
80
78
77
76
74
73
72
72
71
71
71
71
72
72
71
71
70
70
69
68
68
68
67
67
67
66
66
65
65
64
64
64
65
66
67
69
71
73
75
77
78
79
80
81
81
80
79
78
76
74
72
70
68
66
65
63
62
61
59
59
58
58
58
59
59
60
61
62
62
63
64
65
66
68
69
71
73
76
79
82
84
87
88
90
90
90
90
89
88
87
86
84
82
80
77
75
72
68
65
61
58
54
52
49
48
47
47
47
49
51
53
56
58
61
63
65
67
69
71
73
76
79
82
86
89
93
97
101
104
107
110
111
112
111
109
107
103
99
95
91
86
81
76
71
65
60
54
49
44
40
37
34
32
31
30
30
31
31
33
34
36
39
42
46
51
56
61
66
72
77
82
88
93
97
101
105
109
112
115
117
118
119
118
116
112
108
103
97
90
83
76
68
61
55
49
44
39
35
32
30
29
28
28
29
30
32
34
37
40
43
46
51
55
60
66
72
78
85
91
97
102
107
111
114
116
118
118
117
116
113
111
107
103
99
95
90
86
81
77
74
70
66
63
59
56
53
51
49
47
46
45
45
45
46
47
49
51
54
57
60
64
68
72
76
81
85
89
93
95
98
99
99
98
95
92
87
81
75
69
64
59
54
50
46
42
39
37
35
33
32
31
31
31
32
33
35
38
41
44
47
51
56
60
65
71
76
82
88
94
99
104
109
112
115
116
117
116
113
110
105
100
94
87
81
74
67
61
56
51
46
43
40
38
36
35
35
36
37
38
41
43
46
50
53
57
62
66
71
75
80
84
89
93
97
101
105
107
109
110
109
108
106
103
99
93
87
80
72
65
58
52
46
42
39
36
35
34
34
35
36
39
42
46
50
54
59
64
68
73
77
82
86
89
93
96
99
101
103
104
105
106
105
105
104
102
100
98
96
93
90
86
82
79
74
70
65
61
56
51
47
44
41
40
39
40
41
43
46
49
52
56
59
62
65
67
69
71
73
74
75
76
76
75
74
74
73
72
71
71
71
71
71
71
72
72
73
73
73
73
73
72
71
71
69
68
67
65
64
63
64
65
67
70
73
76
80
83
86
88
89
90
90
90
88
86
84
81
78
75
72
69
67
65
63
62
61
61
61
62
63
64
65
66
67
68
68
69
69
70
70
71
71
71
72
73
75
77
79
82
85
88
91
92
92
91
89
86
82
77
73
68
64
60
57
54
52
51
50
50
50
50
50
51
51
52
52
54
55
57
59
61
64
66
68
71
73
75
78
80
83
85
87
90
92
94
95
95
95
94
92
90
88
85
82
79
75
72
68
65
62
59
56
54
53
52
51
50
50
50
50
50
50
51
52
53
56
58
61
64
67
70
73
76
79
81
84
86
88
89
90
90
90
91
90
90
89
88
86
84
82
79
77
75
73
72
71
70
70
70
70
70
70
69
68
66
65
65
64
64
64
64
64
64
65
65
65
65
66
66
66
66
66
66
66
67
67
67
67
67
67
67
66
66
65
64
64
63
64
64
66
68
70
73
76
78
80
81
81
82
82
82
83
84
84
85
86
87
88
89
90
90
90
90
90
90
89
88
87
85
82
78
74
69
63
58
53
49
45
41
39
38
38
38
40
42
45
47
50
53
55
57
59
60
61
63
65
67
71
75
79
84
88
92
95
98
100
101
102
102
100
98
94
90
85
80
76
71
67
64
61
59
57
55
54
54
53
54
54
55
55
57
58
59
61
63
64
65
67
68
69
71
73
76
79
82
85
88
91
93
94
95
94
92
89
86
81
76
70
65
60
55
50
46
43
41
41
41
41
43
44
46
48
51
54
57
60
63
67
71
75
79
83
86
90
93
96
98
100
102
103
104
104
103
102
100
96
93
89
84
79
74
70
64
59
55
50
46
44
41
40
39
39
39
39
39
40
42
44
46
49
52
55
58
62
66
69
73
76
79
82
85
89
92
96
99
102
105
107
108
107
105
102
97
91
83
75
67
60
54
49
45
42
40
39
38
38
38
38
39
40
42
45
47
51
54
59
63
68
73
78
82
87
91
95
99
103
106
109
112
113
114
114
114
112
109
105
100
93
85
77
69
61
53
46
40
35
31
29
28
27
28
30
32
35
38
42
47
52
58
64
71
77
84
90
96
102
107
112
116
119
121
122
122
121
120
117
114
109
103
97
89
82
74
67
59
52
46
40
35
31
28
27
26
26
26
28
30
33
37
43
48
55
61
67
74
79
85
90
94
98
102
105
106
107
107
106
104
101
97
93
88
82
77
72
66
62
57
53
50
47
44
42
41
40
39
39
39
39
41
43
46
49
53
58
63
68
73
79
85
91
97
102
107
111
114
116
117
117
116
113
110
104
98
91
83
75
68
62
56
51
47
43
41
39
38
37
36
35
35
34
34
35
35
37
39
41
44
48
52
58
64
71
78
85
92
98
103
108
112
115
116
116
115
111
107
101
94
87
80
73
66
60
55
50
47
45
43
41
40
40
39
39
40
41
42
44
46
49
51
55
58
62
67
71
76
81
85
90
94
98
102
105
108
109
110
108
106
102
97
91
84
76
69
61
55
49
44
41
39
39
38
39
40
41
43
45
47
49
51
53
56
59
62
66
70
75
79
84
89
93
97
101
104
107
109
110
111
111
109
107
103
98
92
86
78
71
63
57
52
48
45
44
43
43
43
44
45
46
48
50
53
57
61
65
69
74
78
82
86
90
94
97
100
103
104
105
106
105
104
101
98
95
91
86
81
75
70
64
59
54
50
47
45
44
44
44
44
45
47
49
51
53
55
58
61
65
69
73
78
82
86
90
92
94
94
95
95
95
94
93
91
88
85
82
77
73
68
63
57
53
48
44
40
37
35
34
33
33
35
37
40
44
48
52
57
61
66
71
76
81
86
92
97
101
105
109
111
113
113
113
111
109
105
101
96
90
84
78
71
65
58
52
46
41
36
33
30
29
28
29
30
31
33
35
38
40
44
47
51
56
62
68
74
80
86
92
98
103
109
114
118
121
123
123
122
120
116
110
103
95
86
77
68
59
51
45
39
35
33
31
31
31
33
35
37
39
41
43
46
48
50
53
57
61
65
69
73
78
82
86
90
94
97
100
102
103
103
102
100
97
93
88
82
76
70
65
59
54
50
46
43
40
39
38
39
40
43
46
50
54
58
62
67
72
76
81
86
90
94
98
101
105
107
110
112
113
113
112
111
109
107
104
100
95
90
85
79
74
69
65
60
56
52
48
44
40
37
35
34
33
34
36
38
42
47
52
57
63
68
72
77
80
84
87
89
92
93
94
95
95
94
93
91
89
87
84
80
76
71
67
63
59
56
54
52
51
51
52
52
54
55
56
57
58
59
60
62
64
66
68
71
74
77
81
85
90
94
97
100
102
103
102
101
99
96
92
88
83
77
72
66
61
57
54
51
49
47
47
46
46
47
47
48
48
49
49
49
50
51
52
54
56
59
62
66
71
77
82
88
94
98
101
103
103
102
100
97
93
89
84
79
74
69
64
59
56
53
50
48
47
47
47
48
49
50
52
53
55
56
58
59
61
62
64
65
67
69
72
76
80
85
89
93
96
99
102
103
104
105
104
102
100
96
91
86
81
75
70
65
60
56
53
50
48
47
46
45
45
45
46
47
49
51
53
56
60
63
66
69
72
76
79
82
85
88
90
92
94
94
94
94
93
91
88
85
81
77
73
68
64
60
57
55
53
52
52
52
53
54
56
57
59
61
63
65
68
71
74
78
81
84
87
90
93
95
97
98
98
98
98
97
96
93
91
87
82
77
72
67
61
56
51
47
43
41
39
39
39
40
41
43
44
46
48
50
53
57
60
64
68
72
77
82
86
91
96
100
104
107
109
111
112
111
110
107
103
98
92
85
78
71
65
59
54
49
45
42
40
38
37
36
36
36
37
38
39
41
43
46
49
53
57
62
67
72
77
82
87
91
94
97
99
100
102
102
102
101
99
95
90
84
77
70
64
58
53
50
48
48
48
49
51
52
54
54
55
55
56
57
58
60
62
65
68
72
75
79
82
86
89
92
95
97
99
100
101
101
101
99
96
92
87
81
73
65
57
48
41
35
30
28
27
28
30
32
35
39
42
45
49
52
56
61
65
70
75
81
86
91
96
101
105
108
111
113
114
115
115
114
113
110
106
101
94
87
79
71
62
53
45
37
30
24
20
18
17
18
19
22
26
30
35
40
46
51
57
62
67
73
78
84
89
94
98
102
106
109
111
113
115
116
116
115
113
110
107
103
98
92
85
78
71
63
56
49
44
39
36
35
34
35
37
39
43
47
51
56
60
64
68
72
76
80
84
87
90
92
94
96
98
99
99
100
99
98
96
94
92
89
86
83
79
75
71
67
62
58
53
49
44
41
38
36
35
36
38
40
44
48
53
58
64
69
74
79
84
88
91
94
97
99
100
101
101
101
101
100
99
97
95
92
90
86
82
78
74
69
64
59
55
51
47
44
40
37
35
32
30
29
28
28
29
30
33
36
41
46
51
56
61
66
71
76
81
86
90
93
96
98
100
102
104
107
109
111
113
115
116
117
118
118
118
117
116
114
111
108
104
99
94
88
81
73
65
55
45
36
28
20
15
11
9
8
8
9
11
14
17
20
23
26
29
33
38
42
48
53
59
65
71
78
84
90
97
103
109
114
119
123
126
128
129
130
129
128
126
124
121
118
115
110
105
100
93
86
78
70
61
53
45
38
32
27
23
21
20
20
21
23
25
28
31
35
39
43
48
53
58
63
68
73
78
82
86
90
93
95
97
98
99
100
100
100
99
97
95
92
88
84
79
74
69
64
59
54
51
47
45
43
41
40
39
38
38
39
40
43
46
49
53
57
61
65
69
73
77
81
84
86
88
90
92
93
94
94
94
93
91
89
86
82
79
75
71
67
64
61
58
57
55
55
54
54
54
54
55
56
57
59
60
61
62
64
66
68
71
75
79
82
86
90
94
97
100
103
105
106
106
105
103
100
96
91
86
81
76
70
65
60
56
53
50
47
45
43
42
41
40
40
39
39
39
40
40
41
42
44
47
50
54
58
63
67
71
76
81
85
90
95
99
103
105
107
107
107
105
103
101
98
95
92
89
86
82
79
76
73
70
67
64
62
59
57
56
54
53
52
51
51
51
51
52
52
52
53
54
55
57
60
63
67
71
75
79
83
86
89
91
92
93
93
92
91
90
89
88
86
85
83
80
78
75
72
69
67
65
63
61
60
60
59
59
59
59
59
59
58
57
57
56
56
57
58
59
61
63
65
67
70
72
73
74
74
74
74
73
73
73
73
73
73
73
74
74
75
76
76
76
77
77
77
77
77
78
78
79
80
81
82
83
85
87
89
91
93
94
95
96
95
94
93
90
87
83
78
74
69
64
60
56
52
49
47
45
44
43
43
42
43
43
44
46
48
51
54
58
62
65
69
73
77
81
85
89
94
98
102
105
108
111
113
113
113
112
110
106
102
97
91
84
77
70
63
56
49
44
39
36
34
33
33
33
34
36
37
38
40
41
42
44
46
49
52
56
61
67
73
79
85
91
96
102
107
112
116
119
121
121
120
118
115
110
104
97
89
81
73
65
57
50
44
39
35
31
29
27
26
26
27
28
30
31
34
36
39
42
46
50
55
61
67
73
81
88
96
104
111
117
122
126
128
128
127
125
121
116
109
102
95
87
79
72
64
58
52
47
43
40
37
35
33
32
31
31
31
32
34
36
39
42
46
51
56
61
67
73
79
85
92
98
104
109
114
118
120
121
121
119
115
111
105
97
89
81
72
64
57
50
44
39
35
31
28
26
24
23
23
23
25
27
30
33
37
40
45
50
56
63
70
77
85
91
98
103
109
113
117
121
123
124
125
124
123
120
117
112
106
99
91
83
74
64
56
47
40
33
27
23
19
17
16
16
17
20
23
26
30
35
40
45
50
56
62
68
75
82
89
96
103
110
116
120
124
126
126
126
124
122
118
114
109
104
99
93
88
82
77
71
65
59
53
48
43
39
35
32
31
30
31
33
36
39
44
48
53
58
63
69
75
81
87
92
97
101
104
106
108
109
109
108
106
103
100
96
91
87
83
79
75
72
69
65
62
58
55
52
49
46
43
41
40
39
39
40
42
44
48
52
56
61
66
71
75
79
83
87
90
94
96
98
99
98
96
93
90
87
84
81
78
76
74
72
71
68
66
64
62
60
58
57
55
54
52
51
49
48
48
48
49
50
53
57
62
67
72
77
81
85
88
90
91
91
90
88
84
80
76
71
67
63
60
56
53
51
48
46
45
44
45
46
47
50
52
55
57
59
61
62
63
65
66
68
70
73
77
81
85
90
94
98
102
105
106
106
104
100
96
90
84
78
73
68
64
60
56
53
50
48
46
45
45
46
47
49
50
52
53
55
56
57
58
60
62
65
68
72
76
81
85
90
94
98
102
105
107
108
107
104
100
95
89
83
76
70
63
56
50
45
40
37
34
33
32
32
33
34
36
38
41
44
47
51
54
58
62
66
71
75
80
85
90
94
98
102
106
109
112
114
116
117
116
115
112
109
104
98
91
84
76
68
60
52
45
39
34
29
26
24
23
23
24
26
28
31
34
37
41
44
48
53
58
63
68
73
78
83
88
93
96
100
102
104
105
105
105
104
103
101
99
96
93
90
86
83
79
75
70
65
61
57
53
50
48
47
46
46
47
48
49
51
54
57
60
64
67
71
75
79
82
85
89
92
94
96
98
99
100
100
100
99
97
95
92
88
84
79
74
68
62
56
50
44
40
36
34
33
34
34
36
38
41
44
47
51
56
60
65
70
76
81
86
90
94
98
101
103
105
107
109
111
112
113
113
112
110
108
105
101
96
91
85
78
71
64
57
51
46
41
37
33
31
30
29
29
29
30
32
33
36
38
42
46
51
56
61
67
72
78
83
89
94
98
103
106
109
111
112
113
113
112
110
108
104
100
94
88
81
74
66
59
53
47
42
37
34
32
31
31
31
32
34
36
39
43
48
53
58
62
67
72
76
80
84
88
91
95
98
101
104
106
108
110
111
112
112
110
108
106
102
98
93
88
82
76
69
62
56
50
44
39
34
30
26
23
21
20
20
20
22
25
29
33
38
44
50
56
62
68
73
78
84
88
93
98
102
105
108
110
112
113
114
114
114
113
111
109
106
102
97
93
87
82
76
70
64
58
52
47
42
38
34
32
30
28
28
28
29
31
34
37
40
44
49
53
58
63
68
73
78
83
87
92
97
101
105
108
111
113
114
115
115
115
113
111
108
104
99
93
88
81
75
68
61
54
47
41
36
32
29
26
25
24
25
25
27
30
32
36
39
43
46
50
55
59
64
69
75
79
84
89
93
98
103
107
111
115
118
120
120
119
117
114
109
103
96
89
81
73
65
57
50
43
37
32
28
25
22
21
21
22
24
26
29
33
37
41
46
52
57
62
68
74
80
86
92
98
103
107
111
114
117
119
121
123
124
124
123
121
119
115
111
106
101
94
87
79
71
63
55
48
41
36
31
27
25
23
22
22
22
24
26
28
31
34
38
42
47
51
56
61
65
69
74
78
82
87
90
94
97
100
103
106
108
110
111
111
111
109
106
102
97
91
84
76
69
61
55
49
45
41
39
37
36
36
36
36
38
40
42
45
49
53
58
63
68
72
77
81
85
88
91
94
97
99
102
103
105
106
106
105
105
103
102
99
95
90
83
75
67
59
52
46
41
37
34
32
32
32
33
35
37
39
42
45
48
52
56
60
65
69
74
79
83
88
92
96
100
103
106
109
111
113
113
113
113
111
109
105
100
95
88
81
74
66
58
51
45
39
35
32
31
30
30
30
31
32
34
37
39
43
46
50
54
59
63
68
74
80
86
91
97
102
106
110
113
116
117
118
119
118
116
113
108
103
96
89
82
75
68
61
56
51
47
45
43
42
42
42
43
44
46
48
51
53
56
59
63
66
70
73
77
81
85
88
92
95
97
100
102
103
104
103
101
97
92
86
80
72
64
57
51
45
41
38
36
35
35
34
35
36
37
39
40
42
44
47
49
51
54
57
60
63
67
70
73
76
79
82
85
89
93
96
100
102
103
104
102
100
97
92
87
82
77
72
67
63
60
57
55
53
52
52
52
53
54
55
56
57
58
59
60
62
63
64
66
68
69
71
72
74
76
77
79
81
83
85
86
87
87
86
84
81
78
74
70
67
64
62
61
59
58
57
56
56
56
56
57
59
60
62
64
66
68
70
72
74
76
78
80
81
83
84
86
87
89
90
92
93
94
95
95
94
92
88
83
77
71
64
57
52
47
44
42
41
41
41
42
43
44
45
47
48
50
52
55
58
62
66
70
74
78
82
85
89
91
94
96
98
99
101
103
104
105
106
106
105
103
100
95
89
82
75
67
61
55
50
46
43
42
41
40
41
41
43
45
48
51
55
58
62
65
68
70
73
75
77
79
82
84
87
89
92
94
97
99
101
102
102
101
99
96
92
88
82
77
71
65
59
55
51
48
46
44
43
43
42
43
44
46
49
52
56
60
64
67
71
74
77
79
81
83
85
87
89
91
94
96
99
100
102
102
102
101
98
95
91
86
80
74
67
61
55
50
46
43
40
38
37
36
36
36
36
37
39
41
43
46
49
53
57
61
65
69
73
77
80
84
87
91
94
98
101
104
108
111
113
115
116
115
113
110
105
100
93
87
80
73
67
61
56
52
48
45
42
40
38
36
35
34
34
35
36
39
41
44
48
51
55
58
62
65
69
72
76
79
83
87
90
94
98
102
104
107
108
109
108
107
103
99
94
88
81
75
69
64
59
55
51
48
45
43
42
41
40
40
40
40
41
42
44
47
50
54
57
61
64
68
72
76
80
84
89
94
99
104
110
114
119
122
124
124
123
119
113
106
96
86
75
64
54
46
39
34
30
28
26
25
24
24
23
23
24
25
27
29
32
34
38
41
45
49
53
57
62
67
73
79
86
93
101
109
116
123
129
134
138
140
140
137
133
125
115
103
89
76
63
52
43
36
31
28
26
26
26
26
27
29
30
32
34
36
39
42
45
49
52
56
60
64
68
73
78
84
89
94
100
105
110
115
120
124
127
129
130
129
127
122
116
107
96
83
70
57
46
37
30
25
22
21
21
21
22
24
27
30
33
36
40
44
48
52
56
60
64
68
71
75
78
82
85
89
93
97
101
105
108
112
115
118
121
124
126
126
126
124
120
113
105
94
81
67
54
41
31
22
17
13
12
12
14
16
19
22
25
29
32
36
39
42
45
48
51
55
58
62
66
70
73
77
81
86
90
94
99
103
106
109
112
114
115
116
115
114
112
108
103
96
88
78
68
57
46
37
30
25
23
24
26
29
33
37
41
45
49
53
56
60
63
67
71
75
79
83
87
91
95
98
101
104
106
109
112
114
116
117
118
117
116
115
112
110
106
102
97
91
84
76
66
56
45
34
23
14
7
3
2
3
6
11
16
21
27
32
38
43
48
53
58
62
67
72
77
82
86
91
95
98
102
105
108
111
113
116
118
119
120
120
120
119
118
117
115
114
112
109
105
101
94
87
78
68
58
50
42
37
33
31
30
29
29
29
29
30
31
33
35
38
41
44
47
50
53
56
59
62
65
68
71
74
78
81
85
88
90
93
94
96
98
99
101
103
104
103
101
98
93
86
78
69
61
53
46
41
37
35
34
34
35
36
37
39
41
43
45
47
50
52
55
57
59
62
65
68
71
74
77
80
83
87
90
93
95
98
100
102
104
105
106
107
107
107
104
100
94
86
77
67
56
47
38
32
27
25
25
27
30
34
39
44
48
53
57
61
65
68
72
75
78
82
85
87
90
93
95
98
100
102
104
106
108
110
111
113
113
113
113
111
109
105
100
93
85
76
65
53
42
31
23
16
12
11
12
14
18
22
27
32
37
41
45
49
53
57
61
65
69
73
76
80
84
87
91
96
100
104
108
111
114
116
117
117
116
114
111
108
103
98
92
86
79
71
63
55
47
41
36
32
31
30
31
33
36
39
42
45
48
51
54
58
61
64
67
71
74
77
81
84
87
90
92
95
97
99
100
102
103
104
104
105
105
106
106
106
105
104
101
97
92
85
76
66
56
45
35
27
21
17
15
16
17
20
23
27
30
33
37
40
44
47
51
55
59
64
68
72
76
79
82
85
88
91
93
96
98
100
103
105
107
108
110
111
112
112
111
109
107
104
101
96
91
85
78
70
61
53
44
37
32
28
25
25
25
27
29
33
37
41
45
50
54
58
62
66
70
73
77
80
83
86
89
92
94
96
99
100
102
102
102
102
101
99
96
93
89
84
79
74
69
65
61
57
54
50
47
44
41
39
39
39
40
42
45
49
52
56
61
65
70
74
79
83
87
91
95
98
101
103
104
104
104
102
100
98
94
90
85
79
73
68
63
58
54
51
49
47
46
45
45
44
44
43
43
43
43
43
44
46
49
52
57
61
66
71
76
81
86
91
95
99
102
104
106
107
107
106
104
101
97
92
87
82
76
71
67
63
59
56
54
52
50
49
48
48
47
47
46
46
45
46
47
48
50
53
55
58
62
66
70
74
78
83
87
92
96
99
102
104
104
103
101
98
95
91
87
83
79
76
72
69
66
63
60
58
56
54
52
50
48
47
45
45
45
46
47
49
51
53
56
59
62
65
68
71
75
78
82
86
90
94
97
99
101
101
101
100
99
96
93
90
85
81
76
72
69
66
63
60
58
56
54
52
50
48
47
47
47
48
49
51
53
55
58
60
63
66
69
73
77
80
84
88
91
93
95
96
97
97
96
95
94
92
89
86
82
77
73
69
65
61
58
56
54
53
52
51
50
50
50
50
51
53
55
58
61
64
66
69
71
74
76
78
79
81
82
84
84
85
86
86
87
86
86
85
83
80
77
74
70
65
61
57
52
49
46
44
43
43
43
44
45
46
48
50
52
54
57
59
62
66
69
73
78
82
86
89
92
95
96
98
98
99
99
98
97
96
94
91
87
83
79
75
71
67
64
62
60
59
59
59
59
60
61
62
63
64
65
66
66
67
67
67
68
69
71
74
76
79
82
85
87
89
90
91
92
92
91
90
88
86
84
82
79
76
73
69
66
63
61
59
57
57
56
56
57
58
60
61
64
66
68
70
72
72
73
72
72
72
71
71
71
71
72
73
75
76
77
79
79
79
79
78
77
76
74
72
70
68
65
63
61
60
59
58
57
56
56
55
55
56
56
57
59
60
62
65
68
71
75
78
81
83
85
85
85
85
84
83
81
80
79
78
77
76
75
74
73
71
69
66
64
61
60
58
57
56
56
55
55
55
55
55
56
57
57
58
59
60
61
62
63
64
65
67
68
70
72
75
77
79
81
82
84
85
85
86
86
87
87
86
85
84
82
80
77
74
72
69
66
64
62
60
59
58
57
57
57
57
56
56
56
57
57
58
59
60
61
63
65
68
72
75
79
82
85
87
89
91
92
93
93
93
92
91
90
88
87
85
83
80
77
75
72
70
68
67
66
65
65
65
64
64
64
64
64
63
62
61
61
60
60
60
61
62
64
65
67
68
70
71
73
74
75
76
77
77
78
78
78
78
77
76
75
74
72
71
71
70
70
71
71
72
73
73
74
74
74
74
74
73
72
72
72
72
72
71
71
71
71
71
71
71
71
71
71
71
71
71
72
72
73
73
73
72
72
71
70
69
68
67
67
66
66
67
67
69
70
72
74
76
77
79
80
81
81
81
81
79
78
76
74
72
71
71
71
71
72
73
73
74
74
74
73
72
71
69
67
65
64
62
61
60
59
58
57
57
57
57
58
59
61
62
64
66
69
71
73
75
77
79
80
82
83
84
84
85
85
85
85
85
85
85
85
84
83
82
80
78
75
72
69
66
63
60
58
55
52
50
48
47
46
46
47
48
50
52
55
57
60
64
67
70
72
75
78
81
84
87
90
92
94
96
98
99
100
101
102
103
103
103
101
99
97
93
89
85
79
74
68
62
57
52
48
45
43
41
40
39
40
41
43
45
47
50
51
53
54
54
54
55
55
56
58
60
63
66
70
74
78
82
86
89
92
95
97
99
101
101
102
101
101
99
98
95
93
89
85
80
75
70
65
60
56
53
49
47
46
45
45
46
48
50
53
56
60
63
66
68
70
71
72
72
71
71
72
72
74
75
77
78
80
81
83
84
84
85
84
84
83
81
80
78
75
73
70
66
63
59
55
52
49
47
45
44
45
46
47
50
54
57
62
66
69
72
75
76
77
78
78
79
79
79
80
81
82
83
85
86
87
88
89
89
89
88
88
87
86
83
81
77
73
68
64
59
55
51
48
46
44
44
45
47
49
52
55
58
61
65
68
71
73
75
76
77
78
78
78
79
79
79
80
80
81
82
83
85
86
88
90
91
92
92
92
90
88
85
81
77
72
68
63
59
56
53
51
49
48
48
49
50
51
53
55
57
58
60
61
62
62
63
65
66
67
69
71
73
75
77
79
81
83
84
85
87
87
88
88
88
87
86
84
82
79
76
72
69
65
62
59
56
54
52
51
51
51
52
52
54
55
56
57
58
59
60
61
63
65
67
70
74
78
81
84
87
90
91
93
94
95
95
95
95
94
93
91
89
86
83
80
76
72
68
65
62
59
57
55
53
52
51
50
50
50
51
52
53
54
55
55
56
58
60
62
65
68
71
74
76
79
82
84
86
88
90
92
93
95
96
97
97
96
95
93
90
87
84
80
77
73
70
67
64
61
58
56
54
53
51
50
49
49
48
49
50
51
52
54
56
59
62
66
69
73
77
81
84
87
90
92
94
95
96
96
96
96
94
92
90
87
83
79
75
71
68
65
63
62
61
60
59
57
56
54
52
49
47
45
42
40
39
38
38
39
40
43
47
51
55
60
65
70
76
81
87
92
96
100
103
106
108
109
109
108
107
104
101
97
93
90
86
82
79
76
73
70
68
66
65
63
62
61
60
58
56
54
53
51
49
48
48
49
50
52
54
57
60
64
67
71
75
78
81
84
86
87
87
86
85
83
80
78
75
72
69
66
63
61
58
57
55
54
53
53
53
53
54
54
54
54
54
54
53
54
55
57
61
65
69
74
79
83
88
92
96
99
101
103
104
105
104
103
101
98
95
91
86
82
78
75
72
69
66
64
61
59
57
55
53
51
50
49
48
47
47
47
48
49
51
54
57
61
65
69
74
78
83
88
92
96
99
102
105
107
109
111
112
112
111
109
106
102
98
92
85
78
71
64
58
53
49
46
43
41
39
37
35
33
32
31
30
30
31
33
35
39
43
48
54
59
65
70
75
81
86
91
95
99
102
105
106
108
109
111
112
114
115
116
116
115
114
111
108
103
97
90
82
74
65
57
50
45
40
36
33
30
28
26
24
22
21
20
19
20
21
23
26
29
34
39
44
50
56
62
69
75
82
89
95
101
106
110
113
115
117
118
119
119
118
116
114
111
107
103
98
93
87
80
74
67
61
55
49
44
40
36
33
31
30
29
29
30
31
32
33
36
38
41
45
49
53
57
62
67
71
76
81
85
88
91
94
96
97
98
99
99
98
96
93
90
86
82
78
74
70
65
61
58
55
53
52
52
52
52
53
54
55
56
58
59
61
63
65
68
71
74
77
81
84
88
91
95
97
100
102
105
106
107
108
107
105
102
99
94
89
83
78
72
66
60
54
48
42
38
34
30
29
28
29
30
33
37
40
44
48
51
54
57
60
64
67
72
76
81
85
90
94
97
100
102
104
106
107
108
109
110
110
110
109
107
105
101
97
92
87
81
74
67
60
52
45
39
34
30
28
26
26
28
30
33
38
42
48
53
58
63
67
71
75
79
82
84
86
87
88
89
89
90
90
91
90
90
89
87
85
83
81
78
74
71
67
63
59
56
53
51
49
48
48
48
48
49
50
51
53
55
57
59
62
65
69
72
76
79
83
86
89
91
94
95
96
97
97
97
96
95
94
92
90
88
85
83
79
76
73
69
66
63
60
57
55
54
53
53
54
54
55
55
55
55
55
55
55
56
57
59
61
62
64
66
69
71
73
75
77
79
80
82
84
85
87
87
88
88
88
88
87
87
86
85
83
81
79
76
73
70
66
64
61
59
58
57
57
57
57
58
59
59
60
60
60
61
61
62
62
63
64
64
65
65
66
68
69
71
72
74
75
76
77
77
78
78
77
77
76
75
75
74
73
73
72
71
70
69
69
69
70
71
73
74
75
76
76
76
76
75
74
73
72
71
70
69
70
71
72
74
76
78
81
83
84
85
86
86
85
84
82
80
78
76
74
72
70
68
65
63
61
60
58
57
57
57
57
58
59
61
62
64
65
67
67
68
68
69
69
68
68
67
67
66
67
68
70
73
76
79
82
85
87
89
91
91
92
91
90
88
85
82
79
76
72
69
66
63
60
58
57
56
56
57
58
59
60
61
63
63
64
64
64
64
63
62
61
61
61
61
62
63
65
66
68
70
72
74
76
78
79
81
82
84
86
88
90
91
93
93
94
94
94
93
91
89
87
84
81
79
76
74
72
69
68
66
64
62
60
59
57
56
56
55
55
56
56
57
59
60
61
62
63
63
63
64
64
65
66
68
71
74
77
80
84
86
89
91
92
92
91
89
87
85
82
79
76
73
69
65
62
58
55
52
50
48
47
47
47
48
49
50
51
52
52
53
55
56
58
60
62
63
64
66
68
70
73
77
81
84
88
91
95
98
101
103
105
105
104
102
99
96
92
88
84
80
76
72
68
64
61
59
58
57
56
56
56
55
55
55
55
56
56
56
57
58
58
59
60
62
63
65
67
69
71
74
76
78
80
81
82
82
82
82
81
79
77
74
72
69
66
64
63
62
61
61
61
62
62
63
64
65
66
67
67
68
69
70
71
72
73
74
75
75
76
76
77
77
77
76
75
74
73
71
70
69
69
68
67
66
64
63
62
61
61
60
59
59
59
59
59
59
60
61
62
63
65
66
68
70
72
74
76
78
79
80
80
80
80
79
79
78
77
76
75
74
72
71
70
69
67
66
64
63
61
60
58
57
56
54
53
52
52
51
52
52
53
55
56
59
61
64
68
71
76
80
84
88
92
96
99
102
104
105
105
104
103
101
99
96
93
90
86
83
79
76
73
70
68
65
63
61
59
58
56
55
54
53
53
52
52
51
51
52
52
53
54
56
57
59
62
64
67
71
74
78
81
84
87
90
93
95
97
98
99
99
98
97
95
93
90
87
84
80
77
73
70
67
65
63
62
60
59
59
58
58
58
58
58
58
58
58
59
60
61
63
64
66
67
69
71
74
76
79
82
85
87
90
92
93
95
96
96
97
96
95
94
92
90
87
84
80
76
72
67
62
57
53
49
45
42
39
37
36
36
36
37
39
41
44
47
50
53
57
61
64
68
72
76
79
83
86
90
94
97
100
102
104
104
104
103
102
100
97
93
90
86
82
78
75
71
68
64
61
57
54
50
47
44
42
40
38
38
38
38
40
42
44
47
50
53
57
61
65
69
74
79
83
87
90
93
95
96
98
98
98
97
96
94
92
89
86
83
80
77
74
71
69
68
67
66
65
65
64
63
62
61
59
58
57
56
55
54
54
54
55
57
59
62
66
70
74
79
84
89
93
97
100
102
103
102
101
99
96
93
89
85
80
76
71
67
64
60
58
55
53
52
51
51
51
52
53
53
54
54
54
54
55
55
56
56
57
58
59
60
62
64
66
69
71
74
77
80
84
88
91
95
97
99
99
98
96
93
88
83
77
72
67
63
59
57
55
53
52
52
51
51
51
51
51
52
54
55
57
59
62
64
67
69
72
74
75
77
78
79
80
81
83
84
86
87
88
88
88
88
87
85
83
81
78
76
73
71
69
67
66
65
64
64
64
64
64
64
64
64
64
65
65
66
67
68
69
70
72
73
74
75
77
78
79
79
80
80
81
82
82
83
83
82
80
78
75
72
68
65
62
59
56
53
51
49
49
49
49
50
52
54
56
58
60
62
64
66
68
70
72
73
75
77
79
81
82
84
85
87
89
90
92
94
95
96
96
96
95
94
93
91
88
85
82
78
75
71
68
66
64
62
60
58
56
54
53
52
52
52
53
54
54
55
56
57
57
58
59
60
61
62
63
65
67
69
71
73
74
76
77
78
79
79
79
78
77
76
75
73
72
71
70
70
69
70
70
71
73
75
76
77
78
77
76
74
71
68
64
61
58
57
56
56
58
60
63
66
69
71
73
75
76
76
77
77
77
76
76
75
75
74
74
74
74
75
75
75
75
75
76
77
78
80
81
82
83
84
84
84
84
82
80
77
73
68
64
60
57
55
54
53
54
55
56
57
58
59
60
60
59
59
59
58
58
58
59
60
61
63
65
68
71
75
78
82
85
88
90
93
95
97
98
99
100
100
99
97
94
90
85
80
74
69
64
60
57
55
54
53
53
52
51
49
48
47
46
45
44
44
44
45
47
50
53
56
60
64
68
72
75
79
83
86
90
93
96
98
100
101
101
101
99
97
94
90
86
81
77
74
71
69
67
66
66
65
64
63
62
60
59
57
55
53
51
50
49
50
51
52
54
57
59
62
65
68
70
73
76
78
80
82
84
85
85
85
84
83
81
78
76
73
71
70
68
68
67
68
68
70
71
72
73
73
73
73
72
70
69
67
66
64
63
63
63
64
65
66
68
69
71
72
73
74
75
75
76
76
75
75
74
73
72
70
69
67
66
65
65
65
66
67
68
69
70
70
71
71
71
71
70
70
70
70
70
71
72
73
74
76
77
78
79
80
81
82
83
84
84
85
84
83
81
79
77
74
72
70
68
67
66
65
64
63
63
62
62
61
61
61
61
60
60
59
58
57
56
55
55
56
57
59
62
64
67
69
71
74
76
78
80
82
83
85
86
86
87
87
86
85
84
82
80
78
76
74
73
72
72
71
70
69
69
68
67
66
65
63
62
62
61
61
62
63
64
66
68
71
74
77
79
81
83
84
85
86
87
87
88
88
88
88
87
85
82
79
76
74
71
69
67
66
65
64
63
62
61
59
57
56
54
53
52
51
50
49
48
47
46
46
46
47
49
51
54
57
61
65
68
72
75
79
82
85
88
91
93
94
95
95
94
93
90
87
85
82
81
79
79
78
78
78
77
76
75
74
73
71
69
68
67
66
65
64
64
64
64
65
65
66
68
70
72
74
77
79
81
83
85
87
89
91
92
92
92
90
87
84
80
75
71
67
64
62
61
62
63
63
64
64
64
63
62
61
61
60
59
58
58
57
58
58
59
61
63
65
67
70
72
75
77
80
82
85
87
89
91
92
93
93
92
90
87
82
77
72
67
63
60
57
55
53
52
52
51
51
52
52
53
54
55
56
57
59
61
63
65
67
69
71
74
77
80
82
85
88
91
93
95
96
97
97
96
94
90
86
81
75
68
62
55
50
45
40
37
35
34
34
35
37
39
42
45
48
51
55
59
63
68
72
75
79
82
85
88
91
94
97
99
102
104
105
107
107
107
105
102
97
92
86
79
73
66
60
54
49
46
43
41
40
40
41
42
44
46
48
51
54
58
62
66
70
75
79
83
87
91
94
97
100
102
103
105
106
107
107
107
107
105
103
100
95
90
83
75
66
57
48
40
33
28
24
21
20
20
20
21
23
24
26
29
31
34
38
42
46
52
58
64
71
77
84
90
95
99
103
107
110
113
115
118
119
120
121
120
118
114
108
101
92
83
73
63
54
45
37
31
25
21
19
17
16
16
16
16
18
19
22
24
28
32
37
42
48
55
62
70
79
88
97
106
114
122
129
135
141
145
149
151
151
150
148
143
137
129
119
109
98
87
77
68
61
55
50
47
44
42
40
38
36
34
33
32
31
30
30
30
30
30
31
32
34
36
39
42
46
50
55
60
66
72
78
84
90
95
99
102
104
105
105
104
102
100
96
92
88
84
79
76
72
69
67
64
62
60
58
57
55
54
54
54
54
56
57
59
61
63
65
67
69
72
74
75
77
78
80
81
82
83
83
84
84
84
84
83
83
82
80
78
76
73
70
68
66
65
64
64
65
65
66
67
68
69
70
71
72
73
74
74
75
75
75
75
76
76
76
77
78
79
80
81
82
82
81
80
78
76
74
71
68
65
63
60
58
56
55
54
53
53
53
52
53
53
53
54
56
57
60
62
66
70
74
79
83
87
91
94
96
99
100
102
103
104
104
104
103
102
99
97
93
89
84
78
71
65
59
54
49
45
42
40
39
38
38
38
38
39
40
41
43
44
47
50
53
58
62
67
71
76
80
84
88
92
96
99
102
106
108
111
112
113
113
112
109
106
101
95
88
81
74
66
60
53
48
43
39
37
35
34
34
34
35
35
36
38
40
42
45
49
53
56
60
64
69
73
77
81
84
88
91
94
97
100
102
104
104
104
103
101
98
94
91
86
82
77
71
66
61
56
52
49
46
43
41
38
37
36
35
36
37
38
40
43
46
51
55
60
66
71
77
83
88
94
99
104
109
113
116
118
119
118
117
115
113
109
106
102
98
94
90
85
81
76
71
66
61
56
51
46
42
39
36
35
34
34
34
36
38
40
42
45
48
50
53
56
59
63
67
71
76
80
84
88
92
94
96
97
97
97
96
95
94
93
91
89
87
85
82
79
75
71
67
63
58
54
49
45
42
39
38
37
38
39
41
44
47
50
54
58
62
66
69
73
76
79
82
84
86
87
88
88
87
87
86
86
86
86
86
86
86
85
85
85
84
82
81
78
76
72
69
66
63
61
58
57
55
55
54
55
56
57
58
60
62
64
66
68
70
72
74
75
76
76
76
76
75
75
74
73
73
72
71
71
71
71
72
72
72
72
71
70
69
68
67
67
66
66
66
66
66
66
66
66
66
67
67
68
69
70
71
73
73
74
74
74
73
72
71
70
70
69
68
68
67
67
67
67
67
68
68
68
69
69
69
69
68
67
67
66
65
64
65
65
66
68
69
71
73
74
76
78
80
82
83
85
86
87
88
88
87
86
84
83
80
78
76
75
73
72
71
71
70
70
70
70
70
71
71
71
71
70
70
70
70
70
71
71
72
73
74
75
76
77
79
79
79
78
77
75
74
72
70
68
66
65
63
61
59
58
56
55
54
53
52
52
52
52
53
54
55
57
58
60
61
62
64
65
66
67
68
69
70
71
73
75
78
80
83
86
89
92
94
96
97
97
96
94
92
89
85
82
79
76
74
72
70
68
67
66
66
65
65
65
65
65
66
66
66
66
67
67
68
68
69
70
71
72
73
73
74
75
75
75
76
76
76
76
76
75
73
71
69
66
64
61
59
57
55
54
53
53
54
55
55
57
58
59
60
62
64
66
68
70
73
76
78
81
84
87
89
91
93
94
95
96
96
96
96
95
93
91
88
85
81
77
73
69
64
59
55
51
47
44
42
39
37
36
34
34
34
34
35
37
39
42
45
48
52
56
59
63
67
70
74
78
81
85
89
93
96
99
102
104
105
106
107
107
106
104
102
99
96
92
89
85
82
79
77
74
72
69
67
65
64
63
62
61
61
61
62
62
63
64
64
65
66
66
67
68
70
72
73
75
77
79
80
80
81
81
80
78
77
74
72
69
66
63
60
57
54
52
51
50
50
51
52
53
55
57
59
61
63
66
68
71
73
75
77
78
80
82
83
85
87
89
90
91
92
92
91
90
88
85
82
78
74
71
67
64
61
59
56
53
51
50
49
48
49
49
51
52
54
57
59
62
64
67
69
71
73
75
76
79
81
83
85
86
87
88
89
89
89
88
86
84
81
79
76
73
70
67
64
61
58
55
53
51
50
49
49
50
51
53
55
58
61
64
67
70
74
76
79
81
84
86
88
91
93
95
96
98
99
101
102
103
103
103
101
99
95
90
85
79
73
67
61
56
51
48
45
43
42
41
40
40
40
41
42
43
45
47
49
51
53
55
58
60
63
66
70
73
77
80
84
88
91
95
98
100
102
104
105
106
105
104
101
97
92
86
79
73
67
61
56
52
50
48
46
46
45
46
47
47
49
50
52
53
55
57
59
61
63
65
67
68
70
71
73
74
75
76
78
79
81
83
86
88
90
92
94
94
95
95
96
95
95
93
91
88
85
80
76
71
66
61
57
54
52
51
50
50
51
51
52
52
52
53
53
54
55
55
56
57
59
60
61
62
63
65
66
67
68
69
70
71
72
74
75
77
79
82
84
87
90
91
92
92
91
88
85
81
78
75
72
70
68
67
66
65
65
64
64
63
62
61
60
60
59
59
58
58
57
56
56
55
55
55
56
56
57
58
60
61
64
66
69
72
75
77
79
81
83
84
86
86
87
86
86
85
84
82
81
79
78
76
75
74
72
71
70
69
68
67
67
66
66
65
66
66
67
68
69
70
71
73
74
75
77
78
79
80
80
80
81
81
81
81
80
80
80
79
80
80
81
81
81
81
81
80
78
76
74
72
69
65
62
59
55
53
50
48
47
46
46
46
47
48
50
53
56
59
62
66
69
73
77
80
83
85
87
88
88
89
89
89
89
89
89
89
88
88
87
87
86
85
84
82
80
78
76
73
70
67
65
62
60
58
57
56
56
57
58
58
59
60
60
61
62
63
63
64
65
66
66
67
69
70
71
73
75
76
78
80
82
84
85
86
87
87
87
87
86
85
83
82
80
78
75
73
72
70
70
69
69
70
70
70
70
70
70
71
71
70
70
69
68
67
66
65
64
64
63
63
63
64
64
65
66
67
67
68
69
70
70
71
72
72
72
72
71
70
68
67
65
64
62
61
60
60
61
62
63
65
67
69
70
72
73
74
75
76
76
76
76
75
74
74
73
73
74
74
74
75
75
75
75
75
75
74
74
73
72
71
70
69
68
67
66
65
64
64
63
62
61
61
61
62
63
64
66
69
72
75
78
81
83
85
87
88
89
89
89
88
86
84
81
78
75
73
70
68
66
65
64
63
63
63
63
62
62
61
60
59
59
58
58
57
57
57
57
58
58
59
60
60
61
63
64
66
68
70
73
75
78
80
82
83
84
84
84
84
84
83
81
80
78
76
75
73
71
70
69
68
68
68
69
70
71
71
72
73
73
74
75
75
76
76
76
76
76
75
74
73
72
71
70
69
68
67
67
66
66
66
66
66
66
66
66
66
65
65
64
62
61
60
59
59
59
60
60
61
63
64
65
66
67
68
69
71
72
74
76
77
79
81
82
83
83
84
83
83
83
83
82
82
82
82
82
82
81
81
80
79
78
76
75
73
71
70
68
67
65
63
61
59
58
56
55
55
54
54
55
55
56
57
58
59
60
61
62
63
64
66
68
70
72
74
77
79
81
83
84
86
87
89
90
92
94
95
97
97
98
97
96
94
91
88
84
81
78
75
72
69
66
64
61
59
56
54
52
50
48
47
46
45
45
46
47
48
50
51
54
56
59
63
67
71
75
79
83
87
90
93
96
98
100
100
100
99
98
96
94
92
89
87
85
82
80
78
75
73
69
65
61
57
53
49
46
43
41
39
39
38
39
40
41
43
45
47
50
53
55
58
62
65
69
73
77
80
83
85
87
89
90
91
91
91
90
90
89
88
88
87
86
85
83
82
79
76
73
70
67
63
60
57
55
53
52
52
52
53
53
53
54
55
56
59
61
64
67
71
74
77
80
82
84
84
84
84
83
82
81
81
81
81
81
81
81
81
81
82
82
82
82
81
80
79
77
76
74
72
70
68
67
65
63
61
59
58
56
55
54
54
55
56
58
61
63
65
67
68
68
68
69
69
69
69
69
69
70
70
72
73
75
77
79
81
82
83
84
83
83
81
80
78
75
74
72
71
70
69
68
67
65
64
63
62
61
61
61
60
60
60
60
60
61
61
62
62
63
63
63
64
65
66
67
69
71
73
75
78
80
83
85
87
88
88
89
89
88
87
86
85
83
81
78
76
74
72
70
69
68
68
67
67
67
66
66
65
65
64
63
62
61
60
59
58
58
58
58
58
59
59
61
62
63
64
65
65
66
66
67
67
68
68
69
69
70
71
71
72
73
74
75
76
77
78
79
80
81
82
83
83
83
82
81
80
78
77
75
73
72
71
70
69
68
67
66
65
64
63
63
62
61
61
60
60
60
61
61
62
64
66
68
70
73
75
77
78
80
82
83
84
85
86
86
86
86
85
84
83
82
80
78
75
73
70
68
66
65
63
62
61
60
60
59
58
58
57
57
56
56
55
55
56
56
57
59
60
62
64
67
69
72
76
79
82
85
88
91
94
97
100
103
105
108
110
111
112
112
111
110
107
102
97
90
82
75
68
62
57
53
50
48
47
47
47
46
46
46
45
45
45
45
46
47
48
50
52
53
55
57
59
61
63
65
67
69
72
75
79
82
86
89
92
94
96
98
99
99
98
96
93
88
82
76
70
64
59
54
51
49
48
47
48
48
49
50
51
53
54
56
57
60
62
65
68
70
72
74
76
77
79
80
82
83
85
87
89
91
93
96
98
100
101
101
101
99
96
93
88
82
75
68
62
56
51
47
44
43
41
41
40
40
41
42
44
47
50
53
56
59
62
65
68
70
72
74
75
77
78
78
79
80
80
80
81
81
81
82
82
82
81
80
78
76
73
69
66
63
60
57
56
54
54
54
54
54
55
55
55
56
57
58
60
63
67
71
76
80
85
89
92
96
98
100
102
102
102
102
101
99
98
96
93
90
87
83
78
74
69
65
60
57
53
50
48
47
46
46
46
47
47
48
49
50
51
53
55
56
58
60
62
65
68
72
76
81
85
89
93
96
99
100
101
101
100
98
95
92
88
84
80
76
72
68
64
60
56
53
50
48
46
44
43
42
41
41
42
43
45
47
50
53
56
60
63
67
71
75
78
81
84
86
88
89
91
93
94
94
94
94
93
92
90
88
85
81
77
73
68
64
60
57
55
53
52
51
51
51
51
52
53
55
57
59
61
64
67
70
73
76
79
82
84
85
87
88
89
90
91
91
91
91
90
89
87
84
80
76
72
67
62
58
54
51
48
45
43
42
41
41
42
43
44
45
47
49
50
53
55
58
62
65
69
72
76
80
84
87
91
94
96
98
100
101
102
103
103
102
101
99
96
93
89
86
82
79
76
73
70
68
66
64
62
61
60
59
58
57
57
57
58
59
60
61
63
64
66
68
70
72
73
75
76
77
77
77
77
76
75
74
73
71
69
66
64
61
59
56
54
52
51
51
51
53
55
57
59
62
64
67
69
72
74
76
79
81
83
85
87
90
91
93
95
95
96
96
96
95
95
95
94
93
92
90
88
85
82
78
74
69
64
58
52
45
40
34
30
27
25
25
25
27
30
34
39
44
50
56
61
67
72
78
83
88
92
96
99
101
103
104
105
106
106
106
106
105
103
102
100
97
94
90
85
80
75
71
66
62
59
56
55
53
53
52
53
53
54
56
57
58
60
63
66
70
74
78
82
86
90
92
94
95
96
96
95
93
91
90
88
86
83
81
77
73
68
63
58
54
51
48
47
46
46
47
48
49
50
51
53
55
57
59
62
65
68
72
76
81
85
90
95
100
105
109
112
114
115
114
112
107
102
95
88
80
72
64
56
49
43
38
33
30
28
26
25
25
25
26
27
29
32
35
38
41
45
49
54
58
63
69
75
81
87
93
99
105
111
116
121
125
128
131
132
132
130
127
121
114
104
92
80
66
52
40
28
19
11
6
3
2
1
2
3
5
7
9
12
16
20
25
30
35
41
46
52
59
65
72
79
86
93
100
106
112
117
122
125
128
130
130
129
126
122
117
109
101
92
81
71
60
50
41
34
29
24
22
20
20
21
22
24
27
30
33
37
41
46
51
56
62
67
73
78
83
89
94
99
103
108
111
114
116
117
117
116
115
112
108
103
96
89
82
74
66
58
52
45
40
35
32
29
28
28
29
31
34
37
40
44
48
52
56
61
65
69
73
77
80
84
88
92
95
99
102
105
108
111
114
116
117
118
118
118
117
114
111
107
101
94
85
75
65
55
46
38
31
27
24
22
22
24
26
30
33
37
41
45
49
53
58
62
67
72
77
82
86
90
94
97
101
103
106
107
108
109
109
109
108
107
105
103
100
96
92
87
81
74
67
60
52
44
37
32
27
24
23
23
24
26
29
33
38
43
49
55
61
67
72
77
83
87
92
96
99
102
104
106
107
109
110
111
111
111
110
110
109
108
106
105
102
99
95
89
83
74
65
55
44
34
24
16
10
6
4
4
6
10
15
21
27
35
42
50
58
65
72
78
84
89
94
99
104
109
113
116
119
121
123
124
125
125
123
121
119
115
111
106
101
95
87
79
70
61
51
42
33
26
19
15
11
10
10
11
14
18
23
28
34
40
47
53
59
65
71
76
81
85
89
93
96
100
103
106
108
110
112
113
113
113
112
111
108
104
99
93
87
79
71
62
53
45
37
30
25
21
19
18
18
20
22
24
28
32
37
42
48
55
61
67
74
79
85
90
95
100
104
108
111
114
117
119
121
123
123
124
123
122
120
117
113
108
102
95
87
79
71
63
54
46
38
31
24
19
15
13
12
12
12
13
14
16
18
21
25
29
35
41
48
55
63
71
79
87
95
102
109
114
119
123
127
129
130
131
130
130
128
127
124
121
117
111
104
96
87
78
68
58
48
39
31
25
19
15
12
10
10
10
11
12
13
15
18
21
24
29
33
39
44
51
57
64
70
77
84
91
97
103
109
114
119
124
127
130
131
131
130
128
125
122
117
111
105
98
91
83
76
68
61
54
48
44
40
37
36
36
36
37
38
39
40
42
43
45
47
50
52
55
58
61
65
68
72
77
81
86
90
94
97
100
102
104
105
104
102
99
95
90
85
79
73
67
61
55
50
45
41
37
34
33
32
32
32
33
35
37
39
42
45
48
52
56
61
65
71
76
81
86
91
96
101
105
109
113
116
118
120
120
120
119
117
114
110
104
97
89
80
71
62
53
45
38
33
29
26
25
25
25
26
27
28
30
31
33
35
37
40
42
46
49
53
57
61
66
71
77
82
88
93
98
103
107
110
113
115
116
116
114
111
107
102
95
88
80
71
64
57
52
48
46
45
46
46
48
49
50
52
53
54
56
57
58
60
62
64
66
69
72
75
78
81
84
88
91
94
98
101
103
106
107
108
109
109
108
107
106
103
99
94
88
81
73
65
57
50
44
40
37
36
36
37
38
39
40
42
43
45
46
48
50
52
54
56
58
60
62
65
68
71
74
76
79
82
85
87
90
92
93
94
94
94
94
94
93
92
90
88
85
82
77
73
68
64
60
57
56
55
55
56
57
59
60
62
63
64
65
67
68
70
72
74
76
77
79
81
82
84
85
87
88
89
90
91
92
92
93
93
92
90
88
85
82
78
73
69
64
59
54
48
43
37
33
29
27
26
27
29
33
37
41
46
50
54
57
61
64
67
70
74
77
80
82
85
87
90
92
94
96
98
100
101
102
103
104
104
105
104
103
102
99
96
93
88
84
78
72
65
58
50
42
36
31
28
26
27
29
32
36
40
44
48
52
56
59
63
67
71
75
79
83
87
91
94
97
99
101
102
103
104
104
104
103
103
101
100
98
95
91
87
83
78
74
69
64
60
55
49
44
38
32
28
25
24
24
26
29
33
37
42
46
51
56
60
64
68
71
74
76
78
80
81
82
83
84
85
87
88
89
91
91
91
91
89
88
86
83
80
77
74
71
68
66
64
63
62
60
58
56
54
52
51
50
50
52
54
57
61
65
69
73
77
80
84
86
89
90
92
93
94
95
96
96
95
94
92
91
89
86
84
81
78
75
72
69
65
63
60
58
56
54
53
51
50
48
46
45
43
42
41
41
42
44
46
49
52
55
59
62
65
68
72
76
79
83
87
91
94
98
100
103
104
105
104
104
102
101
99
97
95
92
89
85
81
77
73
69
65
61
57
53
49
46
42
40
38
37
36
36
37
39
40
43
46
49
52
56
60
64
68
72
77
81
85
90
94
98
101
105
107
110
112
113
113
112
111
109
106
103
98
93
87
81
74
68
62
57
53
49
46
43
41
39
38
37
37
37
37
38
40
42
45
48
51
55
59
62
66
70
75
79
83
86
89
92
94
96
98
100
101
102
102
101
99
96
93
89
85
81
77
74
70
67
64
62
60
58
56
54
53
52
51
50
50
50
50
50
51
52
53
55
57
60
64
67
71
75
79
82
86
90
93
96
98
99
99
99
97
95
91
87
82
77
72
67
63
60
57
55
54
53
52
52
52
52
52
53
53
54
55
56
57
58
60
63
65
68
71
75
78
82
86
90
93
95
97
98
98
98
97
95
92
89
85
80
75
70
65
60
56
54
52
51
51
51
52
53
54
56
57
58
60
61
63
65
67
69
71
73
75
76
78
79
81
83
85
88
91
94
97
99
102
104
105
105
104
103
100
95
89
82
73
63
54
44
36
30
25
23
22
23
24
27
29
32
34
37
41
44
47
51
55
59
62
66
70
74
77
80
83
86
88
91
94
98
101
105
109
111
114
115
115
113
110
106
100
92
83
73
63
54
46
39
34
31
29
29
31
33
35
38
41
44
47
51
54
58
61
65
69
72
75
78
81
83
86
89
93
96
98
101
103
105
107
109
109
110
109
107
104
100
95
90
83
76
68
60
52
45
38
33
29
26
25
24
25
26
29
31
35
38
42
46
49
52
55
59
62
66
69
73
76
79
82
85
87
90
92
94
97
99
101
102
104
105
105
104
102
99
95
90
86
81
76
71
66
61
57
53
50
47
45
43
42
42
43
44
46
49
52
55
58
62
65
68
71
74
76
79
81
84
86
87
89
90
91
92
93
93
93
92
91
90
88
86
84
82
80
78
75
73
70
68
65
63
61
59
57
56
54
53
53
52
52
52
53
54
56
58
59
61
63
66
68
70
73
76
80
83
85
87
88
88
87
86
84
81
79
76
73
70
67
64
62
61
60
60
60
61
62
64
65
66
66
67
68
69
69
70
70
71
71
72
72
72
72
72
72
73
73
74
74
75
75
76
76
75
75
75
74
74
74
74
74
74
74
74
74
74
72
70
68
65
63
61
59
57
57
57
59
60
63
66
69
72
74
77
79
80
81
82
83
83
84
84
84
84
84
84
84
83
82
80
78
76
74
72
71
70
69
68
67
67
67
68
68
69
71
72
72
73
73
72
71
70
68
66
65
63
62
61
60
60
61
62
64
66
69
71
73
75
76
76
76
75
75
74
74
73
73
73
73
73
72
71
70
69
68
68
68
68
69
71
72
74
76
78
80
81
82
83
83
83
82
82
81
79
78
76
74
72
71
70
70
70
70
70
71
71
71
70
69
68
66
64
61
59
57
56
55
54
54
54
54
55
56
57
59
61
63
65
68
70
72
74
77
80
82
85
86
88
89
89
88
87
86
84
81
79
76
74
72
70
69
67
66
64
62
61
59
57
55
53
52
50
49
49
49
49
50
52
53
55
57
59
62
64
67
70
74
77
81
85
88
92
95
97
99
100
101
101
101
101
100
98
97
95
92
90
87
85
82
80
78
75
72
69
66
62
58
55
52
50
48
46
44
44
43
44
44
45
46
48
49
50
52
54
56
58
60
62
65
67
70
73
75
77
79
80
81
81
81
82
82
82
83
83
84
85
85
85
85
84
83
82
80
79
77
75
74
72
71
69
68
67
66
65
65
65
66
66
67
67
68
68
69
70
71
72
73
73
74
74
74
74
74
74
73
73
72
71
71
71
71
71
71
71
71
71
71
70
69
69
68
68
67
67
66
66
65
65
65
66
66
67
68
69
70
72
73
74
76
77
78
78
79
79
79
78
78
76
75
73
72
71
70
70
69
69
68
68
67
66
65
65
64
64
63
62
62
61
61
61
61
61
61
62
62
63
64
65
67
69
71
72
74
76
78
80
81
83
85
86
86
86
86
85
83
81
77
73
69
65
61
58
56
55
54
53
53
54
54
55
55
56
56
56
57
57
57
58
59
61
64
66
70
73
77
80
84
87
90
92
95
97
99
100
102
103
104
105
105
104
101
98
95
90
85
80
75
69
65
61
58
55
54
54
54
54
55
55
55
56
56
56
57
57
57
58
58
59
61
62
63
65
66
67
68
69
70
71
72
74
75
76
77
79
80
81
82
83
82
81
78
75
71
67
62
58
55
53
52
51
52
52
53
55
56
57
58
59
60
62
64
65
67
70
72
74
76
78
80
81
83
85
86
87
88
89
89
90
90
90
90
90
89
88
86
84
81
78
74
70
66
62
57
53
50
47
44
42
41
40
40
40
41
43
45
48
51
54
58
61
64
68
71
74
76
79
81
84
86
89
91
93
94
96
97
99
100
101
103
104
105
106
106
106
106
106
106
105
104
102
100
98
94
90
85
79
73
65
58
50
44
38
34
31
30
30
31
33
35
37
40
43
45
47
49
51
53
55
57
59
61
64
66
69
72
75
79
82
86
89
92
94
96
98
100
101
101
101
101
100
98
96
94
91
88
84
79
74
67
61
55
50
45
42
41
40
40
40
41
42
44
45
46
48
49
51
53
55
58
62
66
70
74
78
81
85
88
90
93
95
97
98
99
99
99
99
99
99
97
95
92
87
82
76
69
63
57
52
49
47
46
46
46
46
47
46
46
45
45
45
45
46
48
51
54
58
62
67
72
76
81
85
89
92
94
96
97
98
99
99
98
97
96
94
92
90
87
84
80
75
70
64
60
56
53
52
51
52
53
53
54
54
54
54
53
53
53
53
55
57
60
63
67
72
77
81
86
90
95
98
101
104
106
107
107
107
106
105
103
100
97
93
88
83
77
71
65
60
55
51
48
45
44
43
43
43
43
44
44
45
46
47
49
51
53
56
58
61
65
68
72
76
80
83
87
89
91
93
94
94
93
92
90
87
84
80
76
72
68
64
60
57
53
50
47
45
43
41
40
39
38
37
38
39
41
44
48
53
58
64
69
75
80
85
90
94
98
101
104
107
110
112
114
115
115
114
113
110
107
103
98
92
84
76
68
59
50
43
36
31
28
25
24
24
25
26
28
30
32
34
37
40
44
49
54
60
66
72
78
84
91
97
103
109
114
119
123
126
128
129
129
129
128
126
122
118
113
106
99
90
81
71
61
50
40
30
21
14
8
3
1
0
0
1
3
6
9
14
18
23
29
36
43
51
59
68
76
85
93
101
108
115
121
127
132
135
138
140
141
141
141
140
138
136
132
128
122
115
107
98
88
77
66
55
45
36
28
22
17
13
10
8
7
7
7
9
11
13
17
21
26
31
37
44
51
57
64
71
78
84
90
96
101
106
111
115
118
120
122
123
123
122
120
117
113
108
102
95
88
81
74
66
59
52
46
41
37
34
32
31
30
30
30
31
32
33
35
37
40
43
46
50
55
59
64
69
74
79
84
88
93
97
101
104
107
109
110
110
110
108
106
103
99
94
88
81
73
66
59
52
46
41
36
33
31
30
29
30
32
34
37
40
43
47
51
54
58
62
66
70
74
77
81
84
87
90
93
96
98
100
101
102
103
103
103
102
100
98
95
91
87
83
78
73
68
62
57
52
48
45
43
42
42
42
44
46
48
51
54
57
60
63
66
69
73
76
80
83
87
90
92
94
96
97
97
97
96
95
93
90
88
85
82
78
74
69
64
58
52
46
41
36
33
31
30
30
32
34
38
42
46
51
55
60
64
68
72
76
79
83
87
91
94
97
100
103
106
109
112
114
115
115
115
114
112
110
106
102
97
91
84
76
68
59
50
41
32
25
19
15
13
13
16
19
24
29
35
41
47
52
58
63
68
73
77
81
85
89
93
96
99
102
104
106
108
109
110
111
111
111
110
109
107
104
100
96
91
84
77
70
62
54
46
38
31
26
21
19
18
19
22
27
33
39
45
51
58
64
70
76
81
86
90
94
96
98
100
101
102
102
102
102
102
101
101
100
99
97
95
93
90
87
83
79
75
70
65
59
53
47
41
35
30
26
24
23
23
25
28
31
35
40
44
49
53
57
61
66
70
75
81
86
91
95
100
103
106
108
110
111
112
113
112
112
111
110
109
107
106
104
102
99
97
93
89
84
77
69
60
51
41
32
24
18
14
13
13
15
18
22
26
31
36
41
45
49
53
57
61
65
69
74
77
81
85
88
91
94
97
99
101
103
104
105
106
106
106
106
105
104
102
99
96
92
88
82
76
69
62
55
48
42
37
34
32
31
32
33
36
40
44
48
52
56
60
64
68
72
77
81
85
89
93
96
99
101
102
103
104
104
104
103
101
99
96
93
89
85
80
75
69
64
58
52
47
42
37
32
28
25
23
22
22
23
26
29
32
37
41
46
51
57
62
68
73
79
84
90
95
100
105
109
112
114
115
115
115
114
112
110
107
104
100
96
92
87
82
77
72
66
60
55
49
44
40
36
33
31
29
28
28
29
30
33
37
41
46
51
57
63
68
74
80
86
91
96
100
103
106
108
110
111
111
110
108
106
102
98
93
87
81
74
68
62
56
51
47
42
39
35
32
30
28
27
27
27
29
31
34
38
42
48
53
59
66
72
79
85
92
98
105
111
115
119
122
123
124
123
121
119
116
112
107
102
96
89
82
76
69
62
55
49
43
37
33
29
26
25
24
23
24
25
26
29
31
34
38
42
46
50
55
60
65
71
76
81
86
91
96
101
106
110
114
117
119
120
120
120
118
115
111
106
100
94
87
81
74
68
61
55
50
45
41
38
36
35
34
35
36
37
38
40
42
45
47
50
53
56
59
62
66
70
74
79
83
88
93
98
102
107
111
114
115
116
115
113
110
106
102
96
90
83
76
69
62
55
49
43
39
35
33
32
31
31
32
34
36
39
41
44
47
50
53
57
60
63
66
70
73
76
79
82
86
90
94
98
101
104
107
108
109
108
107
104
99
93
86
79
71
64
57
50
45
40
37
35
33
33
34
35
36
38
40
42
45
47
51
54
57
60
63
66
69
72
76
79
82
86
89
92
95
98
101
104
106
108
109
110
110
109
107
104
100
94
88
81
74
69
64
60
57
55
54
53
52
52
51
51
52
52
53
54
55
56
57
57
58
59
60
61
62
64
66
68
71
73
75
77
78
79
80
80
80
80
79
77
76
73
70
67
65
62
60
58
57
56
57
58
59
61
63
65
67
69
71
73
74
76
77
79
79
80
81
82
83
85
86
88
89
91
92
93
94
94
94
94
93
91
88
86
82
79
75
71
68
64
60
57
54
52
51
50
50
50
51
53
55
57
59
61
64
66
68
70
72
73
74
75
77
78
79
80
82
83
85
87
88
90
91
92
92
92
91
90
88
85
82
78
73
69
65
61
57
54
51
49
47
46
45
45
45
47
48
50
52
55
57
59
62
64
67
70
73
76
78
81
83
86
87
89
90
91
91
91
91
91
90
90
89
87
86
84
81
78
75
71
67
63
60
56
54
52
51
51
51
52
52
53
54
56
57
59
62
64
66
68
71
73
75
78
80
83
86
89
92
94
96
97
98
97
96
93
91
87
84
80
76
72
68
64
60
57
53
50
48
46
44
43
42
41
41
41
41
42
43
43
44
46
48
51
54
58
63
68
73
79
84
90
97
103
109
115
121
125
128
131
132
131
130
126
121
115
107
98
89
79
70
62
54
47
42
37
33
30
28
26
25
24
24
25
26
27
29
32
35
38
42
46
50
55
60
65
71
77
83
90
96
102
109
114
119
123
125
125
124
121
117
111
104
96
88
79
71
64
57
52
47
44
41
38
36
35
34
34
34
35
37
38
39
41
44
47
51
55
60
65
70
75
80
85
90
94
99
103
107
110
113
115
116
116
115
113
109
103
96
88
79
69
60
52
44
38
32
29
26
25
24
25
26
28
30
33
37
41
46
51
56
61
65
70
74
79
83
88
92
97
101
105
109
112
115
117
119
120
119
118
115
111
106
99
91
82
72
62
52
44
37
32
29
27
25
25
25
25
26
28
30
32
35
38
42
46
51
56
61
67
72
77
81
86
90
94
98
102
106
109
113
116
118
120
121
121
120
117
113
106
98
88
77
65
53
41
30
20
13
8
5
4
5
8
11
15
19
24
28
33
38
43
48
53
58
63
69
75
80
86
92
97
102
107
112
117
122
127
131
135
138
139
139
138
135
131
125
116
106
95
82
69
56
44
34
26
19
15
12
12
12
14
17
21
25
30
35
40
45
51
56
62
67
72
77
82
87
91
96
100
104
107
110
113
116
119
122
124
126
127
127
125
121
115
107
97
86
73
60
47
35
25
16
10
5
2
1
1
2
4
7
10
14
19
23
28
33
39
44
49
55
60
65
70
75
80
85
89
93
96
99
101
104
107
110
113
117
121
124
127
128
127
123
118
111
101
91
79
67
55
44
34
26
20
16
13
11
11
12
14
17
21
26
30
36
41
46
52
58
64
70
75
81
85
90
94
98
102
106
109
113
117
121
124
128
131
134
135
136
135
133
128
122
115
105
95
83
71
58
47
36
27
20
15
12
10
9
10
12
15
18
23
27
32
38
43
48
54
60
66
72
78
83
89
93
98
102
106
110
113
116
119
121
122
122
121
119
115
110
104
96
87
77
67
57
48
40
33
28
24
21
20
20
21
23
26
29
33
38
43
48
54
60
66
72
77
82
87
91
95
99
103
106
109
111
113
115
115
115
114
113
110
106
101
95
88
81
73
64
56
48
41
35
31
27
25
24
23
24
26
28
32
36
41
47
52
57
62
67
72
78
83
89
95
100
105
110
114
117
120
122
123
123
122
120
117
113
108
102
95
87
78
69
59
50
41
34
27
22
18
15
14
13
14
15
18
21
25
30
35
40
47
54
61
68
75
82
89
95
101
106
111
116
120
123
126
127
128
128
127
124
121
116
109
102
94
86
77
68
60
52
44
37
32
27
23
21
20
19
19
20
22
24
26
30
33
37
41
45
49
54
59
64
69
75
81
87
93
98
104
108
113
116
119
122
123
123
122
120
117
112
106
99
91
83
75
68
61
54
48
43
39
35
32
29
28
27
27
27
28
29
31
33
35
38
42
46
51
56
61
66
72
77
83
87
92
95
98
100
101
102
102
101
99
97
95
92
89
86
83
80
78
75
73
71
68
66
64
63
61
60
59
58
58
58
58
58
59
60
61
62
63
64
66
68
71
74
77
80
84
87
90
93
95
96
96
95
93
89
85
80
74
69
64
59
56
54
53
53
54
56
58
61
63
65
67
69
71
73
75
77
78
79
80
81
82
83
84
85
86
87
88
89
91
93
95
97
99
100
101
101
101
99
96
92
86
79
71
63
55
47
41
35
31
28
27
26
26
27
30
33
36
40
45
49
53
56
60
64
67
71
75
78
82
86
89
92
96
99
101
103
105
106
107
107
106
105